Trial 1:0back,Trial 6:0back
34.772,37.512
34.718,37.388
34.665,37.262
34.613,37.137
34.563,37.011
34.515,36.885
34.467,36.761
34.419,36.637
34.37,36.516
34.322,36.397
34.274,36.284
34.227,36.177
34.18,36.077
34.135,35.985
34.092,35.904
34.051,35.834
34.011,35.775
33.972,35.73
33.936,35.699
33.902,35.683
33.87,35.681
33.841,35.693
33.812,35.717
33.784,35.752
33.756,35.796
33.728,35.846
33.699,35.901
33.671,35.961
33.643,36.021
33.615,36.079
33.587,36.132
33.557,36.181
33.526,36.223
33.494,36.259
33.46,36.287
33.424,36.307
33.387,36.318
33.348,36.32
33.31,36.311
33.27,36.292
33.23,36.265
33.191,36.228
33.152,36.184
33.117,36.133
33.087,36.075
33.064,36.011
33.049,35.939
33.046,35.862
33.055,35.78
33.079,35.693
33.12,35.602
33.18,35.51
33.262,35.415
33.365,35.319
33.49,35.222
33.634,35.126
33.798,35.03
33.978,34.935
34.174,34.84
34.384,34.746
34.606,34.653
34.841,34.56
35.089,34.467
35.349,34.375
35.621,34.283
35.906,34.193
36.205,34.104
36.517,34.018
36.839,33.934
37.171,33.853
37.506,33.773
37.84,33.693
38.166,33.614
38.477,33.533
38.765,33.451
39.026,33.367
39.253,33.281
39.444,33.192
39.594,33.101
39.703,33.01
39.772,32.919
39.803,32.831
39.799,32.747
39.764,32.668
39.704,32.594
39.621,32.524
39.521,32.458
39.407,32.397
39.283,32.339
39.154,32.284
39.024,32.232
38.898,32.181
38.777,32.131
38.664,32.083
38.557,32.036
38.457,31.99
38.362,31.948
38.27,31.908
38.18,31.872
38.09,31.839
38.001,31.809
37.91,31.782
37.819,31.758
37.727,31.734
37.635,31.71
37.544,31.684
37.452,31.656
37.361,31.625
37.269,31.591
37.176,31.554
37.082,31.514
36.988,31.473
36.895,31.43
36.804,31.386
36.717,31.342
36.635,31.299
36.557,31.258
36.483,31.22
36.412,31.185
36.345,31.152
36.282,31.121
36.224,31.093
36.17,31.065
36.121,31.041
36.075,31.022
36.035,31.01
35.998,31.008
35.964,31.019
35.934,31.047
35.906,31.099
35.882,31.182
35.863,31.303
35.846,31.471
35.834,31.695
35.825,31.981
35.818,32.333
35.813,32.753
35.809,33.241
35.806,33.791
35.804,34.396
35.801,35.045
35.797,35.725
35.789,36.422
35.777,37.119
35.762,37.8
35.743,38.45
35.719,39.056
35.692,39.608
35.662,40.096
35.628,40.515
35.592,40.859
35.553,41.128
35.514,41.322
35.473,41.446
35.433,41.506
35.393,41.508
35.353,41.459
35.313,41.368
35.275,41.241
35.239,41.089
35.208,40.918
35.181,40.735
35.157,40.545
35.136,40.351
35.116,40.158
35.094,39.968
35.068,39.785
35.036,39.609
34.998,39.441
34.952,39.281
34.898,39.13
34.838,38.987
34.772,38.853
34.702,38.727
34.63,38.608
34.558,38.492
34.486,38.38
34.417,38.269
34.349,38.158
34.285,38.044
34.223,37.929
34.166,37.811
34.113,37.69
34.063,37.567
34.015,37.441
33.968,37.315
33.924,37.187
33.882,37.061
33.841,36.938
33.801,36.817
33.762,36.7
33.723,36.587
33.684,36.478
33.645,36.376
33.605,36.281
33.566,36.196
33.526,36.122
33.487,36.061
33.447,36.014
33.408,35.98
33.369,35.96
33.33,35.953
33.289,35.959
33.249,35.976
33.208,36.003
33.169,36.039
33.13,36.083
33.093,36.133
33.055,36.188
33.017,36.246
32.98,36.306
32.943,36.365
32.909,36.422
32.877,36.476
32.848,36.525
32.823,36.566
32.805,36.598
32.794,36.62
32.792,36.632
32.801,36.633
32.823,36.624
32.859,36.604
32.911,36.573
32.982,36.53
33.073,36.475
33.185,36.409
33.317,36.331
33.47,36.243
33.643,36.147
33.838,36.044
34.055,35.935
34.295,35.821
34.563,35.704
34.862,35.585
35.198,35.463
35.573,35.341
35.987,35.219
36.435,35.098
36.911,34.979
37.406,34.862
37.909,34.748
38.409,34.636
38.892,34.526
39.349,34.417
39.768,34.311
40.143,34.206
40.466,34.104
40.733,34.002
40.941,33.901
41.091,33.8
41.184,33.696
41.224,33.592
41.215,33.487
41.165,33.382
41.081,33.277
40.971,33.173
40.84,33.07
40.694,32.97
40.54,32.871
40.381,32.774
40.222,32.679
40.064,32.584
39.911,32.491
39.762,32.399
39.619,32.31
39.483,32.225
39.353,32.143
39.229,32.065
39.111,31.989
38.999,31.916
38.891,31.845
38.785,31.777
38.678,31.711
38.57,31.648
38.458,31.589
38.343,31.533
38.224,31.48
38.101,31.428
37.975,31.377
37.846,31.327
37.716,31.278
37.585,31.231
37.456,31.187
37.329,31.147
37.206,31.11
37.089,31.074
36.977,31.038
36.872,31.002
36.774,30.963
36.684,30.922
36.599,30.88
36.52,30.836
36.446,30.792
36.377,30.747
36.314,30.703
36.257,30.66
36.206,30.617
36.161,30.574
36.122,30.531
36.087,30.489
36.054,30.447
36.024,30.407
35.996,30.37
35.97,30.335
35.947,30.302
35.926,30.271
35.909,30.242
35.894,30.212
35.88,30.183
35.858,30.157
35.824,30.134
35.78,30.118
35.728,30.115
35.674,30.129
35.62,30.168
35.571,30.24
35.529,30.355
35.496,30.525
35.47,30.76
35.451,31.069
35.438,31.461
35.43,31.937
35.427,32.499
35.425,33.142
35.424,33.857
35.421,34.633
35.414,35.454
35.402,36.302
35.382,37.16
35.355,38.006
35.321,38.823
35.281,39.593
35.236,40.3
35.186,40.934
35.132,41.485
35.076,41.947
35.017,42.317
34.957,42.596
34.896,42.788
34.836,42.898
34.776,42.936
34.719,42.91
34.662,42.83
34.606,42.707
34.551,42.552
34.496,42.374
34.441,42.182
34.387,41.983
34.332,41.782
34.278,41.584
34.224,41.39
34.169,41.204
34.113,41.025
34.056,40.856
33.999,40.696
33.943,40.545
33.887,40.404
33.834,40.271
33.784,40.146
33.737,40.027
33.693,39.912
33.65,39.799
33.607,39.689
33.564,39.581
33.52,39.472
33.477,39.363
33.433,39.25
33.389,39.135
33.344,39.015
33.298,38.891
33.251,38.761
33.202,38.628
33.153,38.491
33.102,38.353
33.051,38.214
33,38.076
32.949,37.94
32.9,37.807
32.852,37.678
32.808,37.556
32.768,37.441
32.737,37.336
32.717,37.241
32.707,37.159
32.704,37.09
32.707,37.036
32.711,36.995
32.716,36.968
32.718,36.954
32.716,36.953
32.71,36.965
32.7,36.988
32.689,37.021
32.677,37.06
32.67,37.105
32.671,37.151
32.684,37.198
32.713,37.244
32.762,37.288
32.833,37.326
32.927,37.357
33.045,37.381
33.187,37.396
33.351,37.403
33.537,37.401
33.741,37.391
33.965,37.373
34.206,37.346
34.464,37.311
34.738,37.267
35.028,37.216
35.336,37.156
35.661,37.088
36.001,37.013
36.353,36.931
36.711,36.841
37.071,36.744
37.423,36.64
37.76,36.532
38.075,36.419
38.36,36.304
38.612,36.186
38.826,36.066
38.999,35.942
39.132,35.816
39.224,35.688
39.279,35.558
39.299,35.428
39.287,35.297
39.247,35.167
39.184,35.038
39.101,34.91
39.004,34.782
38.896,34.657
38.782,34.534
38.666,34.413
38.549,34.296
38.435,34.181
38.323,34.069
38.215,33.958
38.112,33.849
38.013,33.741
37.919,33.635
37.828,33.53
37.741,33.428
37.657,33.329
37.576,33.233
37.498,33.137
37.421,33.044
37.345,32.951
37.268,32.86
37.191,32.772
37.112,32.687
37.032,32.608
36.952,32.535
36.87,32.467
36.788,32.403
36.706,32.342
36.623,32.283
36.54,32.226
36.458,32.169
36.376,32.114
36.295,32.058
36.216,32.002
36.14,31.944
36.068,31.886
36.001,31.826
35.94,31.766
35.883,31.708
35.832,31.651
35.787,31.596
35.747,31.543
35.713,31.493
35.687,31.444
35.666,31.396
35.652,31.349
35.644,31.302
35.641,31.254
35.642,31.204
35.648,31.152
35.656,31.099
35.666,31.045
35.677,30.99
35.688,30.933
35.697,30.875
35.705,30.815
35.71,30.754
35.709,30.691
35.703,30.63
35.692,30.57
35.676,30.512
35.654,30.458
35.627,30.41
35.595,30.37
35.559,30.343
35.518,30.335
35.473,30.353
35.426,30.404
35.378,30.499
35.33,30.648
35.285,30.86
35.241,31.144
35.199,31.509
35.16,31.96
35.121,32.497
35.082,33.117
35.042,33.813
35,34.574
34.957,35.385
34.915,36.228
34.873,37.085
34.831,37.936
34.79,38.761
34.747,39.543
34.703,40.264
34.658,40.914
34.61,41.484
34.562,41.969
34.513,42.366
34.462,42.673
34.41,42.895
34.357,43.034
34.303,43.098
34.248,43.096
34.193,43.037
34.139,42.931
34.087,42.788
34.038,42.616
33.992,42.425
33.947,42.222
33.9,42.013
33.853,41.802
33.806,41.594
33.761,41.393
33.718,41.201
33.677,41.021
33.638,40.852
33.6,40.693
33.563,40.545
33.526,40.405
33.489,40.273
33.453,40.147
33.419,40.024
33.386,39.905
33.354,39.787
33.325,39.669
33.297,39.552
33.27,39.432
33.243,39.31
33.216,39.185
33.188,39.055
33.16,38.922
33.131,38.784
33.1,38.641
33.066,38.495
33.029,38.347
32.989,38.199
32.948,38.052
32.906,37.908
32.865,37.768
32.827,37.633
32.792,37.505
32.761,37.386
32.733,37.277
32.709,37.178
32.689,37.089
32.672,37.01
32.659,36.94
32.649,36.881
32.642,36.834
32.638,36.798
32.636,36.774
32.638,36.761
32.645,36.758
32.658,36.764
32.681,36.778
32.715,36.799
32.763,36.826
32.828,36.856
32.913,36.889
33.021,36.921
33.154,36.95
33.318,36.974
33.518,36.994
33.766,37.008
34.071,37.016
34.443,37.018
34.886,37.013
35.402,37
35.987,36.979
36.631,36.949
37.321,36.91
38.042,36.865
38.777,36.811
39.508,36.75
40.218,36.681
40.889,36.606
41.509,36.524
42.065,36.437
42.551,36.343
42.959,36.245
43.288,36.14
43.537,36.03
43.706,35.913
43.8,35.789
43.824,35.66
43.785,35.527
43.692,35.391
43.553,35.252
43.375,35.111
43.169,34.969
42.94,34.827
42.698,34.685
42.45,34.545
42.202,34.408
41.959,34.274
41.723,34.144
41.497,34.018
41.283,33.896
41.08,33.777
40.889,33.661
40.71,33.546
40.54,33.432
40.38,33.319
40.227,33.208
40.08,33.097
39.937,32.989
39.798,32.884
39.663,32.782
39.529,32.684
39.395,32.59
39.261,32.5
39.126,32.413
38.991,32.331
38.856,32.251
38.721,32.173
38.585,32.096
38.449,32.019
38.314,31.942
38.18,31.865
38.047,31.788
37.918,31.71
37.793,31.631
37.672,31.552
37.555,31.472
37.442,31.391
37.334,31.311
37.232,31.232
37.135,31.155
37.044,31.08
36.956,31.01
36.872,30.942
36.792,30.877
36.716,30.816
36.645,30.757
36.578,30.701
36.516,30.646
36.461,30.59
36.412,30.534
36.37,30.475
36.335,30.415
36.308,30.353
36.287,30.289
36.27,30.224
36.256,30.156
36.244,30.087
36.233,30.018
36.222,29.95
36.211,29.884
36.196,29.82
36.178,29.761
36.155,29.707
36.129,29.66
36.096,29.625
36.056,29.604
36.009,29.606
35.958,29.636
35.904,29.704
35.849,29.819
35.794,29.991
35.74,30.231
35.687,30.547
35.635,30.946
35.584,31.433
35.534,32.008
35.486,32.667
35.441,33.4
35.397,34.197
35.355,35.041
35.313,35.916
35.272,36.802
35.23,37.68
35.187,38.53
35.141,39.335
35.093,40.079
35.042,40.75
34.988,41.338
34.932,41.836
34.872,42.241
34.809,42.554
34.744,42.776
34.677,42.915
34.607,42.978
34.537,42.974
34.466,42.913
34.395,42.803
34.325,42.653
34.255,42.473
34.185,42.272
34.116,42.059
34.047,41.84
33.981,41.621
33.916,41.405
33.853,41.198
33.792,41
33.731,40.814
33.67,40.64
33.609,40.478
33.547,40.326
33.486,40.18
33.426,40.041
33.366,39.906
33.306,39.773
33.248,39.641
33.191,39.509
33.135,39.375
33.081,39.238
33.03,39.097
32.982,38.952
32.938,38.803
32.896,38.65
32.857,38.493
32.819,38.332
32.781,38.167
32.745,37.998
32.709,37.827
32.673,37.657
32.638,37.49
32.602,37.329
32.566,37.176
32.529,37.032
32.492,36.898
32.456,36.775
32.421,36.663
32.388,36.563
32.357,36.475
32.327,36.4
32.298,36.336
32.271,36.286
32.245,36.248
32.222,36.223
32.201,36.212
32.184,36.214
32.171,36.229
32.16,36.254
32.154,36.289
32.153,36.33
32.161,36.374
32.178,36.421
32.207,36.467
32.252,36.511
32.315,36.553
32.396,36.592
32.498,36.626
32.622,36.655
32.77,36.679
32.947,36.696
33.157,36.704
33.406,36.703
33.703,36.691
34.053,36.667
34.46,36.629
34.923,36.579
35.438,36.517
35.998,36.444
36.592,36.362
37.209,36.271
37.834,36.173
38.455,36.07
39.054,35.962
39.618,35.849
40.134,35.733
40.591,35.613
40.983,35.489
41.305,35.362
41.555,35.231
41.733,35.099
41.843,34.969
41.889,34.84
41.877,34.712
41.816,34.584
41.713,34.454
41.576,34.322
41.412,34.189
41.227,34.053
41.028,33.915
40.82,33.776
40.609,33.636
40.4,33.496
40.196,33.358
40.001,33.222
39.816,33.089
39.641,32.96
39.475,32.833
39.318,32.709
39.169,32.586
39.027,32.464
38.891,32.345
38.759,32.227
38.628,32.112
38.499,31.999
38.37,31.891
38.241,31.787
38.11,31.688
37.979,31.594
37.845,31.504
37.71,31.417
37.574,31.332
37.435,31.248
37.295,31.165
37.155,31.082
37.013,30.998
36.873,30.915
36.735,30.832
36.602,30.748
36.477,30.662
36.359,30.575
36.249,30.485
36.148,30.394
36.055,30.302
35.97,30.21
35.894,30.119
35.824,30.029
35.762,29.938
35.707,29.847
35.657,29.756
35.614,29.665
35.576,29.575
35.543,29.485
35.515,29.398
35.491,29.313
35.47,29.233
35.45,29.156
35.434,29.085
35.419,29.018
35.405,28.959
35.39,28.907
35.373,28.865
35.356,28.834
35.338,28.82
35.319,28.828
35.299,28.868
35.278,28.948
35.257,29.083
35.236,29.282
35.215,29.557
35.194,29.915
35.173,30.363
35.153,30.904
35.132,31.538
35.109,32.26
35.086,33.058
35.061,33.918
35.034,34.822
35.005,35.748
34.972,36.678
34.936,37.589
34.897,38.461
34.856,39.278
34.811,40.022
34.763,40.682
34.711,41.249
34.656,41.719
34.599,42.091
34.54,42.366
34.48,42.548
34.42,42.645
34.36,42.666
34.301,42.619
34.243,42.515
34.185,42.366
34.129,42.18
34.074,41.965
34.021,41.731
33.97,41.485
33.92,41.235
33.873,40.986
33.825,40.745
33.777,40.513
33.726,40.292
33.672,40.083
33.617,39.886
33.56,39.702
33.503,39.529
33.445,39.365
33.387,39.207
33.331,39.053
33.278,38.902
33.226,38.751
33.176,38.601
33.128,38.45
33.082,38.297
33.036,38.143
32.991,37.985
32.947,37.824
32.903,37.66
32.859,37.493
32.813,37.325
32.768,37.157
32.722,36.991
32.677,36.829
32.633,36.673
32.59,36.525
32.551,36.385
32.514,36.255
32.48,36.137
32.448,36.031
32.418,35.938
32.389,35.856
32.36,35.787
32.332,35.73
32.305,35.686
32.277,35.656
32.248,35.638
32.218,35.635
32.187,35.644
32.155,35.666
32.124,35.698
32.094,35.74
32.064,35.79
32.037,35.845
32.012,35.904
31.99,35.963
31.973,36.021
31.961,36.076
31.956,36.126
31.959,36.169
31.972,36.204
31.998,36.229
32.038,36.243
32.093,36.246
32.165,36.239
32.257,36.22
32.37,36.19
32.506,36.148
32.665,36.095
32.849,36.029
33.059,35.952
33.298,35.863
33.569,35.763
33.88,35.653
34.234,35.535
34.634,35.41
35.078,35.281
35.561,35.15
36.073,35.018
36.603,34.888
37.137,34.76
37.662,34.635
38.168,34.513
38.643,34.393
39.078,34.276
39.466,34.158
39.801,34.041
40.079,33.922
40.298,33.804
40.459,33.686
40.562,33.568
40.612,33.45
40.61,33.333
40.563,33.216
40.475,33.098
40.355,32.98
40.21,32.862
40.048,32.745
39.875,32.63
39.695,32.517
39.513,32.405
39.332,32.293
39.154,32.179
38.981,32.064
38.817,31.949
38.66,31.834
38.513,31.72
38.374,31.609
38.244,31.499
38.122,31.393
38.005,31.29
37.893,31.19
37.783,31.095
37.672,31.004
37.561,30.917
37.449,30.835
37.335,30.757
37.219,30.684
37.102,30.614
36.982,30.547
36.86,30.481
36.736,30.415
36.61,30.347
36.484,30.278
36.358,30.207
36.235,30.134
36.113,30.059
35.995,29.983
35.881,29.906
35.772,29.827
35.669,29.746
35.571,29.665
35.481,29.581
35.398,29.495
35.325,29.41
35.261,29.326
35.205,29.246
35.158,29.171
35.118,29.102
35.085,29.04
35.059,28.982
35.04,28.93
35.025,28.885
35.014,28.847
35.006,28.822
34.999,28.814
34.988,28.829
34.967,28.875
34.937,28.962
34.899,29.101
34.856,29.303
34.812,29.58
34.769,29.941
34.73,30.394
34.698,30.944
34.673,31.59
34.655,32.325
34.646,33.142
34.643,34.024
34.647,34.955
34.655,35.912
34.666,36.876
34.678,37.825
34.69,38.736
34.7,39.591
34.707,40.373
34.711,41.068
34.709,41.669
34.7,42.168
34.683,42.564
34.657,42.857
34.622,43.052
34.582,43.156
34.535,43.179
34.485,43.131
34.432,43.023
34.378,42.867
34.325,42.672
34.273,42.448
34.222,42.204
34.172,41.947
34.122,41.685
34.073,41.424
34.025,41.17
33.978,40.926
33.931,40.694
33.882,40.475
33.833,40.27
33.782,40.077
33.729,39.894
33.674,39.72
33.619,39.553
33.563,39.391
33.507,39.233
33.449,39.077
33.393,38.92
33.339,38.762
33.286,38.6
33.236,38.434
33.187,38.263
33.141,38.089
33.098,37.911
33.058,37.731
33.021,37.55
32.985,37.368
32.951,37.189
32.917,37.013
32.884,36.841
32.85,36.675
32.816,36.517
32.78,36.369
32.742,36.231
32.701,36.104
32.657,35.991
32.612,35.891
32.565,35.805
32.516,35.733
32.467,35.674
32.419,35.629
32.372,35.597
32.329,35.579
32.289,35.575
32.252,35.584
32.218,35.605
32.187,35.637
32.16,35.678
32.137,35.726
32.117,35.781
32.1,35.838
32.088,35.896
32.082,35.952
32.083,36.003
32.095,36.047
32.119,36.083
32.157,36.11
32.21,36.127
32.279,36.134
32.365,36.131
32.469,36.118
32.591,36.094
32.732,36.06
32.893,36.015
33.075,35.961
33.278,35.898
33.505,35.825
33.76,35.744
34.045,35.652
34.366,35.551
34.727,35.44
35.125,35.323
35.559,35.2
36.02,35.074
36.5,34.947
36.987,34.819
37.469,34.69
37.934,34.561
38.37,34.43
38.768,34.3
39.121,34.171
39.423,34.043
39.67,33.918
39.861,33.795
39.997,33.675
40.08,33.555
40.113,33.436
40.1,33.316
40.045,33.198
39.955,33.08
39.834,32.965
39.691,32.852
39.531,32.741
39.36,32.632
39.185,32.523
39.009,32.414
38.835,32.305
38.665,32.195
38.502,32.085
38.346,31.974
38.197,31.864
38.057,31.756
37.926,31.649
37.803,31.546
37.688,31.446
37.58,31.35
37.479,31.258
37.378,31.171
37.265,31.09
37.138,31.013
36.998,30.941
36.849,30.871
36.696,30.8
36.545,30.727
36.402,30.653
36.269,30.577
36.148,30.499
36.038,30.421
35.941,30.342
35.855,30.265
35.78,30.19
35.714,30.116
35.655,30.044
35.601,29.973
35.549,29.903
35.498,29.834
35.446,29.766
35.394,29.701
35.342,29.638
35.29,29.577
35.239,29.517
35.191,29.458
35.148,29.4
35.11,29.342
35.077,29.285
35.048,29.229
35.025,29.173
35.008,29.121
34.997,29.072
34.992,29.028
34.991,28.991
34.994,28.962
34.999,28.946
35.003,28.945
35.006,28.966
35.007,29.016
35.006,29.105
35.002,29.243
34.994,29.442
34.982,29.712
34.967,30.062
34.948,30.498
34.926,31.024
34.9,31.639
34.871,32.337
34.84,33.109
34.81,33.941
34.78,34.815
34.751,35.714
34.724,36.617
34.697,37.504
34.672,38.356
34.648,39.155
34.624,39.885
34.599,40.535
34.573,41.095
34.545,41.561
34.513,41.93
34.477,42.203
34.439,42.384
34.399,42.479
34.357,42.494
34.313,42.44
34.269,42.326
34.226,42.163
34.185,41.962
34.146,41.733
34.108,41.486
34.071,41.23
34.034,40.97
33.997,40.714
33.96,40.464
33.921,40.226
33.88,40
33.836,39.787
33.791,39.587
33.742,39.397
33.691,39.217
33.637,39.045
33.583,38.878
33.527,38.715
33.471,38.553
33.415,38.393
33.36,38.232
33.307,38.07
33.254,37.907
33.202,37.742
33.15,37.575
33.098,37.407
33.049,37.237
33.001,37.066
32.956,36.895
32.915,36.725
32.877,36.557
32.843,36.395
32.814,36.239
32.788,36.093
32.765,35.956
32.744,35.831
32.726,35.717
32.708,35.616
32.691,35.527
32.675,35.45
32.658,35.384
32.641,35.328
32.624,35.283
32.606,35.248
32.589,35.225
32.573,35.212
32.558,35.209
32.545,35.217
32.535,35.236
32.531,35.264
32.537,35.299
32.555,35.34
32.589,35.383
32.64,35.426
32.714,35.468
32.812,35.506
32.937,35.54
33.09,35.568
33.274,35.589
33.494,35.603
33.758,35.609
34.071,35.606
34.439,35.595
34.865,35.576
35.347,35.549
35.879,35.515
36.453,35.472
37.058,35.42
37.688,35.358
38.33,35.288
38.968,35.211
39.585,35.129
40.166,35.043
40.699,34.955
41.173,34.863
41.579,34.768
41.912,34.671
42.17,34.57
42.353,34.467
42.464,34.361
42.509,34.254
42.492,34.144
42.422,34.031
42.307,33.917
42.156,33.802
41.977,33.685
41.777,33.569
41.564,33.454
41.343,33.342
41.121,33.233
40.904,33.13
40.693,33.031
40.492,32.937
40.3,32.846
40.119,32.759
39.946,32.674
39.781,32.591
39.624,32.51
39.474,32.431
39.33,32.352
39.191,32.274
39.056,32.196
38.924,32.116
38.795,32.036
38.665,31.957
38.536,31.879
38.405,31.802
38.273,31.728
38.14,31.655
38.006,31.583
37.871,31.512
37.737,31.441
37.603,31.371
37.471,31.3
37.339,31.229
37.207,31.158
37.077,31.086
36.948,31.012
36.822,30.937
36.701,30.86
36.587,30.782
36.479,30.703
36.378,30.623
36.285,30.545
36.2,30.469
36.122,30.395
36.051,30.325
35.989,30.258
35.934,30.196
35.888,30.138
35.848,30.083
35.815,30.032
35.788,29.983
35.765,29.936
35.745,29.89
35.727,29.843
35.711,29.798
35.695,29.753
35.681,29.711
35.667,29.673
35.651,29.64
35.635,29.616
35.615,29.607
35.59,29.62
35.562,29.662
35.53,29.744
35.497,29.876
35.463,30.069
35.429,30.331
35.396,30.672
35.362,31.097
35.33,31.608
35.299,32.204
35.267,32.879
35.235,33.622
35.203,34.419
35.172,35.256
35.14,36.114
35.107,36.975
35.074,37.82
35.039,38.63
35.002,39.389
34.962,40.083
34.919,40.702
34.873,41.236
34.824,41.681
34.773,42.034
34.718,42.298
34.662,42.474
34.604,42.57
34.546,42.592
34.491,42.549
34.437,42.451
34.386,42.307
34.339,42.128
34.295,41.921
34.256,41.695
34.218,41.457
34.182,41.212
34.147,40.966
34.112,40.723
34.078,40.487
34.043,40.259
34.006,40.042
33.968,39.834
33.926,39.635
33.882,39.444
33.834,39.261
33.784,39.083
33.732,38.911
33.679,38.741
33.624,38.573
33.569,38.405
33.515,38.236
33.465,38.068
33.417,37.9
33.372,37.73
33.329,37.561
33.289,37.39
33.251,37.217
33.214,37.043
33.178,36.871
33.141,36.703
33.101,36.541
33.057,36.386
33.01,36.24
32.959,36.105
32.906,35.981
32.852,35.87
32.799,35.772
32.746,35.686
32.696,35.613
32.649,35.552
32.607,35.503
32.57,35.466
32.539,35.44
32.516,35.425
32.503,35.421
32.503,35.427
32.516,35.443
32.545,35.465
32.591,35.494
32.658,35.528
32.748,35.565
32.863,35.605
33.01,35.647
33.196,35.688
33.433,35.728
33.73,35.764
34.095,35.793
34.533,35.816
35.041,35.831
35.616,35.838
36.249,35.838
36.927,35.831
37.636,35.817
38.36,35.796
39.085,35.77
39.792,35.737
40.469,35.697
41.101,35.649
41.678,35.593
42.193,35.528
42.64,35.455
43.016,35.373
43.319,35.283
43.551,35.185
43.713,35.081
43.809,34.972
43.843,34.859
43.822,34.743
43.754,34.625
43.646,34.505
43.504,34.386
43.337,34.267
43.15,34.151
42.95,34.037
42.741,33.926
42.529,33.817
42.316,33.71
42.106,33.605
41.901,33.503
41.701,33.403
41.507,33.304
41.319,33.209
41.137,33.117
40.961,33.027
40.789,32.939
40.62,32.853
40.453,32.769
40.288,32.686
40.124,32.601
39.961,32.516
39.799,32.429
39.636,32.341
39.471,32.252
39.305,32.16
39.137,32.068
38.967,31.975
38.794,31.882
38.62,31.791
38.446,31.702
38.271,31.617
38.098,31.535
37.925,31.457
37.755,31.383
37.59,31.313
37.43,31.248
37.277,31.187
37.132,31.13
36.997,31.076
36.872,31.024
36.757,30.974
36.652,30.925
36.557,30.878
36.473,30.831
36.4,30.785
36.336,30.739
36.282,30.692
36.235,30.645
36.195,30.596
36.159,30.546
36.128,30.496
36.099,30.445
36.073,30.394
36.048,30.343
36.024,30.294
36.001,30.249
35.976,30.207
35.95,30.174
35.921,30.151
35.89,30.147
35.856,30.167
35.821,30.223
35.786,30.325
35.752,30.485
35.718,30.714
35.684,31.021
35.649,31.416
35.613,31.902
35.575,32.479
35.537,33.144
35.497,33.889
35.456,34.701
35.414,35.564
35.371,36.459
35.326,37.366
35.279,38.266
35.23,39.137
35.179,39.961
35.127,40.72
35.075,41.402
35.023,41.998
34.972,42.5
34.921,42.907
34.87,43.22
34.817,43.439
34.761,43.571
34.703,43.62
34.644,43.598
34.585,43.511
34.527,43.371
34.47,43.188
34.415,42.972
34.36,42.732
34.306,42.478
34.252,42.217
34.196,41.955
34.14,41.697
34.082,41.446
34.022,41.206
33.959,40.978
33.895,40.763
33.83,40.561
33.763,40.37
33.696,40.189
33.631,40.016
33.568,39.849
33.507,39.685
33.449,39.525
33.394,39.366
33.339,39.206
33.288,39.043
33.238,38.876
33.192,38.706
33.148,38.532
33.106,38.355
33.067,38.178
33.029,37.999
32.992,37.82
32.953,37.641
32.914,37.463
32.875,37.289
32.837,37.119
32.799,36.957
32.761,36.801
32.723,36.655
32.685,36.519
32.647,36.393
32.609,36.28
32.572,36.18
32.536,36.092
32.501,36.018
32.466,35.959
32.433,35.914
32.402,35.883
32.376,35.866
32.357,35.863
32.347,35.873
32.347,35.895
32.363,35.927
32.395,35.966
32.446,36.011
32.518,36.058
32.612,36.107
32.733,36.156
32.885,36.202
33.075,36.245
33.312,36.282
33.604,36.312
33.958,36.331
34.375,36.341
34.857,36.34
35.398,36.33
35.993,36.311
36.632,36.282
37.301,36.244
37.985,36.197
38.669,36.141
39.337,36.078
39.976,36.006
40.573,35.927
41.119,35.841
41.604,35.748
42.025,35.648
42.376,35.544
42.658,35.438
42.871,35.33
43.017,35.222
43.102,35.114
43.131,35.007
43.11,34.901
43.048,34.796
42.949,34.69
42.822,34.585
42.672,34.478
42.505,34.371
42.324,34.263
42.135,34.154
41.94,34.045
41.743,33.934
41.547,33.821
41.353,33.705
41.162,33.585
40.975,33.463
40.793,33.341
40.614,33.22
40.439,33.103
40.268,32.992
40.1,32.888
39.935,32.79
39.772,32.698
39.609,32.613
39.447,32.533
39.285,32.459
39.124,32.389
38.963,32.322
38.802,32.257
38.641,32.192
38.48,32.126
38.322,32.059
38.166,31.991
38.013,31.921
37.863,31.848
37.716,31.774
37.571,31.697
37.429,31.618
37.289,31.538
37.154,31.458
37.022,31.378
36.896,31.297
36.776,31.218
36.662,31.139
36.556,31.061
36.46,30.984
36.372,30.909
36.293,30.838
36.222,30.772
36.159,30.709
36.105,30.65
36.058,30.595
36.019,30.542
35.987,30.492
35.96,30.444
35.935,30.4
35.913,30.358
35.892,30.32
35.871,30.287
35.849,30.259
35.827,30.236
35.803,30.219
35.776,30.21
35.747,30.215
35.716,30.24
35.681,30.294
35.642,30.388
35.599,30.534
35.554,30.743
35.508,31.026
35.46,31.394
35.412,31.851
35.362,32.4
35.313,33.04
35.264,33.764
35.214,34.559
35.165,35.411
35.117,36.302
35.069,37.211
35.022,38.119
34.974,39.003
34.927,39.846
34.878,40.63
34.827,41.339
34.775,41.964
34.72,42.496
34.663,42.93
34.603,43.266
34.543,43.505
34.481,43.653
34.418,43.719
34.352,43.713
34.287,43.643
34.222,43.522
34.159,43.359
34.097,43.164
34.037,42.948
33.978,42.719
33.92,42.485
33.862,42.251
33.805,42.022
33.748,41.8
33.692,41.587
33.634,41.385
33.576,41.195
33.517,41.016
33.457,40.847
33.396,40.686
33.335,40.531
33.274,40.381
33.216,40.235
33.161,40.09
33.11,39.945
33.063,39.798
33.019,39.647
32.978,39.493
32.94,39.334
32.904,39.171
32.87,39.006
32.836,38.839
32.803,38.671
32.769,38.502
32.733,38.334
32.695,38.168
32.654,38.005
32.613,37.845
32.571,37.692
32.53,37.545
32.488,37.407
32.447,37.279
32.407,37.161
32.369,37.056
32.332,36.964
32.297,36.884
32.268,36.817
32.244,36.763
32.228,36.723
32.22,36.695
32.222,36.682
32.237,36.681
32.267,36.692
32.315,36.713
32.382,36.743
32.472,36.781
32.586,36.823
32.73,36.87
32.908,36.919
33.129,36.97
33.404,37.021
33.741,37.069
34.145,37.113
34.618,37.151
35.156,37.182
35.754,37.203
36.4,37.213
37.082,37.213
37.784,37.2
38.492,37.176
39.189,37.141
39.863,37.096
40.499,37.042
41.088,36.978
41.618,36.906
42.085,36.825
42.484,36.737
42.812,36.642
43.068,36.542
43.254,36.436
43.373,36.326
43.429,36.212
43.428,36.094
43.376,35.973
43.281,35.849
43.152,35.722
42.994,35.594
42.816,35.463
42.622,35.331
42.418,35.198
42.21,35.065
42.001,34.933
41.794,34.802
41.592,34.673
41.394,34.546
41.202,34.42
41.015,34.296
40.834,34.172
40.658,34.051
40.485,33.931
40.315,33.814
40.146,33.7
39.978,33.589
39.811,33.481
39.644,33.376
39.477,33.274
39.31,33.176
39.142,33.081
38.972,32.988
38.802,32.897
38.632,32.808
38.463,32.72
38.295,32.632
38.128,32.542
37.963,32.452
37.801,32.36
37.644,32.266
37.493,32.17
37.349,32.072
37.213,31.972
37.083,31.871
36.959,31.771
36.84,31.672
36.728,31.574
36.62,31.48
36.519,31.39
36.422,31.306
36.328,31.229
36.24,31.16
36.157,31.097
36.081,31.039
36.011,30.985
35.947,30.934
35.89,30.885
35.84,30.835
35.798,30.786
35.763,30.735
35.733,30.683
35.709,30.629
35.688,30.574
35.669,30.519
35.65,30.464
35.633,30.411
35.614,30.364
35.595,30.327
35.572,30.308
35.545,30.312
35.515,30.35
35.481,30.431
35.445,30.565
35.405,30.762
35.363,31.034
35.318,31.387
35.27,31.829
35.22,32.36
35.166,32.979
35.109,33.678
35.048,34.446
34.984,35.268
34.917,36.128
34.849,37.006
34.78,37.882
34.711,38.736
34.642,39.55
34.572,40.307
34.502,40.995
34.431,41.601
34.36,42.12
34.29,42.547
34.22,42.881
34.151,43.126
34.083,43.284
34.016,43.365
33.949,43.376
33.883,43.326
33.818,43.225
33.752,43.084
33.687,42.912
33.623,42.718
33.56,42.508
33.498,42.29
33.436,42.069
33.375,41.848
33.313,41.633
33.25,41.425
33.188,41.227
33.127,41.038
33.066,40.858
33.006,40.686
32.948,40.52
32.891,40.36
32.837,40.205
32.785,40.054
32.737,39.904
32.691,39.755
32.649,39.605
32.609,39.454
32.57,39.301
32.532,39.147
32.494,38.991
32.455,38.834
32.417,38.677
32.379,38.521
32.34,38.365
32.301,38.212
32.261,38.062
32.221,37.915
32.181,37.774
32.142,37.638
32.104,37.509
32.067,37.388
32.032,37.274
31.998,37.17
31.966,37.076
31.937,36.994
31.912,36.924
31.892,36.866
31.878,36.82
31.874,36.787
31.881,36.766
31.901,36.759
31.936,36.763
31.986,36.777
32.055,36.8
32.146,36.83
32.259,36.865
32.399,36.903
32.569,36.942
32.775,36.98
33.027,37.015
33.332,37.045
33.695,37.068
34.119,37.083
34.603,37.087
35.143,37.079
35.729,37.061
36.352,37.032
36.997,36.994
37.652,36.948
38.3,36.893
38.927,36.832
39.519,36.764
40.064,36.69
40.554,36.612
40.983,36.53
41.346,36.445
41.642,36.355
41.871,36.262
42.034,36.164
42.135,36.06
42.178,35.952
42.169,35.838
42.112,35.721
42.016,35.601
41.888,35.479
41.735,35.356
41.564,35.23
41.382,35.104
41.194,34.977
41.004,34.85
40.816,34.724
40.632,34.599
40.453,34.474
40.28,34.35
40.113,34.225
39.952,34.1
39.797,33.974
39.648,33.849
39.504,33.727
39.364,33.609
39.227,33.496
39.093,33.387
38.961,33.283
38.829,33.182
38.696,33.083
38.563,32.987
38.427,32.893
38.29,32.8
38.149,32.706
38.007,32.613
37.863,32.518
37.718,32.422
37.572,32.324
37.428,32.224
37.284,32.123
37.143,32.021
37.005,31.92
36.871,31.821
36.742,31.724
36.618,31.631
36.5,31.539
36.39,31.449
36.29,31.359
36.199,31.27
36.117,31.182
36.044,31.095
35.979,31.01
35.92,30.927
35.866,30.847
35.816,30.768
35.77,30.69
35.726,30.613
35.686,30.535
35.648,30.458
35.613,30.382
35.581,30.308
35.551,30.236
35.525,30.166
35.501,30.099
35.479,30.034
35.458,29.973
35.439,29.918
35.422,29.871
35.404,29.838
35.386,29.824
35.367,29.836
35.345,29.884
35.32,29.976
35.292,30.122
35.26,30.334
35.226,30.619
35.189,30.986
35.149,31.439
35.108,31.98
35.064,32.605
35.02,33.308
34.974,34.079
34.926,34.902
34.876,35.76
34.824,36.636
34.77,37.508
34.713,38.36
34.653,39.172
34.591,39.927
34.526,40.614
34.459,41.222
34.39,41.744
34.318,42.174
34.245,42.512
34.171,42.76
34.095,42.922
34.017,43.006
33.939,43.021
33.862,42.975
33.786,42.879
33.712,42.742
33.64,42.574
33.57,42.385
33.503,42.182
33.441,41.971
33.382,41.758
33.327,41.547
33.275,41.342
33.226,41.145
33.179,40.958
33.135,40.783
33.092,40.618
33.051,40.463
33.01,40.316
32.971,40.176
32.931,40.039
32.891,39.902
32.851,39.765
32.81,39.625
32.769,39.482
32.727,39.335
32.684,39.184
32.64,39.028
32.595,38.867
32.549,38.701
32.504,38.53
32.458,38.357
32.413,38.182
32.369,38.007
32.324,37.834
32.28,37.664
32.238,37.502
32.198,37.349
32.161,37.206
32.128,37.075
32.1,36.958
32.078,36.854
32.063,36.766
32.056,36.692
32.056,36.633
32.067,36.589
32.091,36.56
32.129,36.544
32.183,36.542
32.257,36.551
32.351,36.57
32.47,36.598
32.62,36.634
32.811,36.676
33.053,36.722
33.357,36.768
33.73,36.813
34.174,36.854
34.689,36.889
35.267,36.918
35.898,36.939
36.572,36.951
37.274,36.955
37.988,36.949
38.699,36.929
39.392,36.89
40.052,36.831
40.668,36.756
41.229,36.666
41.727,36.567
42.157,36.463
42.516,36.356
42.802,36.248
43.016,36.142
43.16,36.04
43.24,35.94
43.261,35.844
43.23,35.752
43.154,35.661
43.041,35.57
42.897,35.478
42.729,35.384
42.541,35.288
42.341,35.189
42.133,35.086
41.921,34.979
41.71,34.868
41.502,34.751
41.3,34.629
41.105,34.501
40.918,34.369
40.74,34.235
40.57,34.097
40.405,33.959
40.244,33.819
40.085,33.681
39.926,33.543
39.766,33.409
39.604,33.279
39.438,33.153
39.27,33.031
39.1,32.914
38.929,32.801
38.758,32.691
38.587,32.582
38.418,32.474
38.249,32.367
38.082,32.26
37.917,32.155
37.755,32.052
37.598,31.95
37.447,31.849
37.302,31.749
37.165,31.65
37.034,31.552
36.91,31.456
36.791,31.363
36.678,31.271
36.57,31.182
36.468,31.094
36.372,31.007
36.283,30.92
36.2,30.833
36.126,30.744
36.059,30.653
35.999,30.562
35.946,30.469
35.9,30.376
35.858,30.281
35.82,30.186
35.787,30.091
35.756,29.994
35.727,29.899
35.702,29.806
35.679,29.718
35.659,29.635
35.641,29.561
35.624,29.496
35.608,29.444
35.592,29.409
35.575,29.396
35.556,29.41
35.533,29.46
35.507,29.554
35.476,29.701
35.443,29.911
35.407,30.194
35.368,30.557
35.326,31.005
35.28,31.541
35.23,32.163
35.177,32.864
35.119,33.635
35.058,34.461
34.994,35.327
34.926,36.213
34.855,37.101
34.782,37.971
34.707,38.805
34.633,39.585
34.559,40.298
34.486,40.932
34.416,41.476
34.349,41.927
34.285,42.282
34.225,42.543
34.166,42.715
34.109,42.805
34.052,42.824
33.994,42.783
33.935,42.69
33.875,42.558
33.813,42.396
33.749,42.213
33.684,42.017
33.618,41.814
33.551,41.608
33.485,41.403
33.42,41.202
33.355,41.008
33.29,40.822
33.226,40.644
33.164,40.474
33.105,40.31
33.047,40.151
32.992,39.995
32.941,39.84
32.891,39.686
32.845,39.53
32.801,39.372
32.759,39.211
32.719,39.045
32.679,38.874
32.64,38.699
32.601,38.519
32.562,38.336
32.523,38.15
32.483,37.962
32.444,37.774
32.405,37.587
32.366,37.402
32.327,37.223
32.289,37.052
32.25,36.891
32.211,36.741
32.172,36.605
32.134,36.481
32.097,36.373
32.061,36.28
32.028,36.205
31.996,36.147
31.968,36.108
31.944,36.086
31.925,36.082
31.912,36.093
31.907,36.119
31.911,36.157
31.926,36.206
31.953,36.263
31.996,36.323
32.058,36.386
32.142,36.449
32.254,36.511
32.406,36.57
32.609,36.627
32.876,36.679
33.214,36.726
33.63,36.767
34.127,36.799
34.702,36.822
35.348,36.835
36.057,36.839
36.816,36.834
37.61,36.817
38.424,36.789
39.241,36.749
40.044,36.696
40.819,36.631
41.551,36.555
42.229,36.468
42.844,36.372
43.391,36.266
43.864,36.152
44.263,36.031
44.586,35.904
44.836,35.772
45.016,35.635
45.128,35.496
45.177,35.353
45.169,35.208
45.112,35.059
45.012,34.909
44.876,34.758
44.713,34.608
44.527,34.459
44.326,34.313
44.115,34.17
43.897,34.03
43.676,33.892
43.456,33.758
43.237,33.627
43.021,33.499
42.807,33.375
42.595,33.253
42.386,33.134
42.179,33.015
41.974,32.896
41.773,32.777
41.576,32.658
41.383,32.537
41.195,32.415
41.009,32.293
40.822,32.173
40.634,32.053
40.443,31.936
40.249,31.819
40.053,31.705
39.856,31.592
39.66,31.481
39.466,31.373
39.275,31.267
39.087,31.164
38.903,31.064
38.723,30.966
38.548,30.87
38.377,30.774
38.211,30.679
38.05,30.584
37.896,30.488
37.748,30.392
37.607,30.294
37.472,30.196
37.342,30.096
37.219,29.994
37.102,29.891
36.99,29.788
36.886,29.684
36.79,29.581
36.701,29.481
36.619,29.383
36.544,29.29
36.474,29.202
36.41,29.122
36.35,29.053
36.294,28.999
36.24,28.965
36.189,28.957
36.14,28.983
36.092,29.051
36.045,29.173
35.997,29.357
35.946,29.614
35.892,29.952
35.835,30.378
35.775,30.895
35.713,31.505
35.649,32.2
35.583,32.971
35.516,33.805
35.447,34.686
35.376,35.593
35.306,36.508
35.237,37.411
35.167,38.281
35.097,39.101
35.026,39.856
34.956,40.534
34.887,41.125
34.817,41.623
34.747,42.027
34.676,42.337
34.604,42.557
34.531,42.693
34.457,42.753
34.38,42.745
34.301,42.678
34.219,42.563
34.136,42.408
34.054,42.223
33.973,42.016
33.894,41.797
33.815,41.57
33.738,41.341
33.661,41.114
33.587,40.892
33.514,40.677
33.444,40.469
33.375,40.271
33.306,40.081
33.238,39.897
33.171,39.72
33.105,39.548
33.039,39.379
32.972,39.211
32.904,39.044
32.835,38.875
32.766,38.703
32.698,38.526
32.631,38.345
32.566,38.162
32.502,37.976
32.441,37.787
32.382,37.598
32.327,37.408
32.275,37.219
32.226,37.033
32.178,36.85
32.132,36.673
32.087,36.504
32.044,36.342
32.002,36.191
31.959,36.052
31.916,35.927
31.872,35.819
31.828,35.729
31.785,35.658
31.743,35.606
31.702,35.572
31.665,35.555
31.63,35.555
31.598,35.571
31.57,35.6
31.544,35.642
31.52,35.695
31.497,35.755
31.476,35.82
31.457,35.886
31.439,35.953
31.424,36.017
31.412,36.077
31.406,36.131
31.407,36.177
31.418,36.212
31.443,36.235
31.493,36.245
31.573,36.243
31.688,36.229
31.838,36.202
32.026,36.165
32.257,36.116
32.536,36.056
32.871,35.986
33.266,35.905
33.722,35.816
34.238,35.718
34.81,35.615
35.428,35.506
36.084,35.393
36.764,35.275
37.456,35.155
38.147,35.033
38.823,34.91
39.473,34.787
40.085,34.665
40.648,34.543
41.156,34.421
41.602,34.299
41.981,34.177
42.294,34.054
42.541,33.931
42.723,33.808
42.844,33.685
42.907,33.563
42.918,33.441
42.882,33.32
42.805,33.199
42.695,33.078
42.559,32.957
42.404,32.837
42.234,32.717
42.055,32.597
41.87,32.479
41.683,32.361
41.495,32.244
41.308,32.128
41.122,32.013
40.937,31.899
40.754,31.787
40.574,31.677
40.396,31.569
40.221,31.463
40.05,31.359
39.881,31.257
39.715,31.156
39.55,31.057
39.386,30.958
39.222,30.86
39.058,30.763
38.893,30.665
38.728,30.565
38.563,30.462
38.398,30.356
38.234,30.249
38.071,30.143
37.908,30.039
37.748,29.94
37.591,29.846
37.437,29.758
37.287,29.676
37.14,29.599
36.996,29.527
36.856,29.46
36.72,29.397
36.587,29.338
36.457,29.28
36.331,29.223
36.21,29.165
36.096,29.105
35.989,29.044
35.891,28.981
35.801,28.919
35.718,28.857
35.643,28.799
35.574,28.747
35.512,28.705
35.458,28.679
35.41,28.676
35.369,28.704
35.333,28.776
35.303,28.901
35.277,29.091
35.251,29.358
35.225,29.711
35.196,30.16
35.164,30.707
35.129,31.352
35.091,32.089
35.049,32.91
35.005,33.8
34.957,34.743
34.905,35.718
34.849,36.705
34.79,37.681
34.729,38.622
34.668,39.509
34.605,40.325
34.543,41.057
34.48,41.693
34.419,42.228
34.358,42.66
34.298,42.99
34.238,43.223
34.179,43.364
34.12,43.423
34.062,43.408
34.005,43.332
33.946,43.205
33.885,43.038
33.822,42.843
33.757,42.626
33.69,42.395
33.621,42.155
33.551,41.913
33.48,41.671
33.408,41.435
33.336,41.205
33.264,40.983
33.192,40.769
33.121,40.561
33.051,40.36
32.98,40.165
32.908,39.975
32.836,39.789
32.764,39.604
32.692,39.421
32.619,39.238
32.547,39.055
32.478,38.872
32.412,38.688
32.349,38.504
32.291,38.318
32.237,38.132
32.188,37.947
32.143,37.763
32.101,37.582
32.063,37.406
32.026,37.236
31.991,37.072
31.957,36.916
31.922,36.768
31.886,36.631
31.848,36.506
31.807,36.394
31.762,36.296
31.716,36.212
31.667,36.142
31.617,36.085
31.567,36.042
31.517,36.012
31.47,35.994
31.427,35.988
31.388,35.994
31.353,36.009
31.323,36.032
31.298,36.062
31.276,36.097
31.258,36.135
31.243,36.176
31.229,36.218
31.215,36.26
31.201,36.301
31.185,36.336
31.169,36.365
31.151,36.387
31.133,36.4
31.116,36.403
31.1,36.397
31.086,36.379
31.076,36.351
31.072,36.311
31.077,36.26
31.092,36.198
31.119,36.127
31.161,36.047
31.222,35.958
31.302,35.862
31.406,35.758
31.54,35.65
31.714,35.536
31.937,35.421
32.217,35.303
32.563,35.185
32.98,35.066
33.467,34.947
34.023,34.828
34.639,34.709
35.305,34.589
36.009,34.468
36.735,34.346
37.469,34.221
38.193,34.095
38.893,33.966
39.554,33.837
40.164,33.708
40.712,33.581
41.19,33.456
41.594,33.333
41.921,33.213
42.172,33.096
42.352,32.983
42.465,32.872
42.516,32.763
42.514,32.656
42.464,32.55
42.375,32.446
42.253,32.342
42.104,32.239
41.936,32.138
41.754,32.038
41.562,31.939
41.364,31.843
41.165,31.749
40.967,31.658
40.773,31.57
40.584,31.485
40.401,31.401
40.223,31.318
40.049,31.235
39.879,31.152
39.712,31.069
39.546,30.985
39.383,30.9
39.221,30.814
39.061,30.726
38.904,30.636
38.747,30.545
38.59,30.454
38.432,30.365
38.273,30.277
38.112,30.193
37.951,30.112
37.789,30.035
37.629,29.961
37.471,29.891
37.317,29.826
37.167,29.767
37.021,29.713
36.88,29.664
36.743,29.618
36.61,29.575
36.483,29.533
36.362,29.491
36.249,29.449
36.142,29.406
36.041,29.364
35.946,29.324
35.856,29.288
35.77,29.258
35.688,29.24
35.61,29.241
35.538,29.268
35.471,29.33
35.411,29.436
35.357,29.598
35.308,29.826
35.263,30.13
35.222,30.517
35.185,30.994
35.15,31.561
35.118,32.212
35.088,32.939
35.06,33.731
35.033,34.572
35.006,35.445
34.976,36.331
34.944,37.209
34.91,38.061
34.875,38.867
34.837,39.613
34.797,40.283
34.755,40.868
34.71,41.361
34.663,41.758
34.614,42.06
34.562,42.269
34.507,42.392
34.45,42.436
34.39,42.411
34.329,42.326
34.267,42.191
34.205,42.015
34.142,41.811
34.078,41.586
34.013,41.35
33.948,41.11
33.883,40.869
33.818,40.634
33.753,40.407
33.688,40.189
33.622,39.983
33.557,39.787
33.492,39.601
33.427,39.422
33.364,39.25
33.301,39.084
33.239,38.923
33.177,38.766
33.114,38.613
33.052,38.461
32.991,38.31
32.931,38.158
32.872,38.005
32.813,37.85
32.755,37.694
32.697,37.536
32.639,37.377
32.579,37.217
32.519,37.057
32.458,36.9
32.397,36.745
32.334,36.596
32.271,36.454
32.209,36.321
32.148,36.198
32.09,36.086
32.036,35.985
31.986,35.897
31.94,35.82
31.897,35.756
31.858,35.704
31.821,35.664
31.786,35.636
31.754,35.62
31.722,35.614
31.692,35.618
31.663,35.631
31.633,35.651
31.604,35.678
31.575,35.709
31.546,35.743
31.515,35.779
31.483,35.814
31.451,35.847
31.418,35.877
31.386,35.903
31.354,35.923
31.323,35.937
31.292,35.945
31.263,35.946
31.235,35.939
31.21,35.923
31.186,35.897
31.164,35.862
31.144,35.818
31.127,35.766
31.11,35.706
31.095,35.639
31.081,35.565
31.066,35.485
31.052,35.399
31.039,35.309
31.028,35.215
31.021,35.117
31.019,35.016
31.022,34.913
31.035,34.808
31.06,34.701
31.1,34.593
31.156,34.484
31.229,34.375
31.324,34.267
31.442,34.16
31.589,34.054
31.772,33.95
32.001,33.849
32.293,33.749
32.659,33.651
33.102,33.554
33.622,33.459
34.209,33.367
34.854,33.274
35.54,33.183
36.251,33.091
36.971,32.998
37.682,32.903
38.371,32.806
39.023,32.71
39.626,32.614
40.171,32.521
40.652,32.431
41.064,32.345
41.405,32.262
41.676,32.182
41.878,32.104
42.016,32.029
42.093,31.957
42.115,31.888
42.088,31.821
42.017,31.755
41.911,31.69
41.778,31.623
41.624,31.555
41.455,31.485
41.278,31.415
41.097,31.344
40.916,31.276
40.736,31.211
40.558,31.149
40.383,31.091
40.213,31.034
40.047,30.979
39.886,30.925
39.73,30.871
39.579,30.816
39.43,30.762
39.285,30.709
39.139,30.655
38.994,30.602
38.848,30.55
38.7,30.496
38.552,30.442
38.403,30.387
38.254,30.334
38.106,30.283
37.958,30.238
37.811,30.201
37.662,30.176
37.513,30.168
37.363,30.182
37.212,30.226
37.063,30.309
36.917,30.441
36.774,30.637
36.636,30.914
36.502,31.281
36.375,31.741
36.253,32.291
36.139,32.924
36.032,33.628
35.934,34.387
35.844,35.187
35.759,36.01
35.679,36.838
35.604,37.651
35.532,38.433
35.465,39.169
35.402,39.846
35.344,40.452
35.291,40.98
35.245,41.425
35.203,41.785
35.166,42.058
35.133,42.25
35.103,42.365
35.076,42.41
35.05,42.392
35.027,42.321
35.006,42.207
34.986,42.057
34.966,41.88
34.946,41.684
34.924,41.475
34.9,41.259
34.874,41.038
34.844,40.819
34.812,40.603
34.776,40.393
34.738,40.189
34.695,39.992
34.647,39.802
34.595,39.618
34.539,39.441
34.481,39.269
34.421,39.103
34.36,38.942
34.3,38.784
34.242,38.629
34.185,38.476
34.129,38.322
34.074,38.167
34.02,38.01
33.968,37.85
33.917,37.69
33.868,37.529
33.819,37.368
33.77,37.209
33.719,37.053
33.667,36.902
33.612,36.757
33.555,36.619
33.497,36.49
33.437,36.37
33.375,36.261
33.312,36.164
33.248,36.079
33.183,36.007
33.118,35.948
33.059,35.901
33.014,35.867
32.983,35.846
32.965,35.836
32.957,35.838
32.951,35.85
32.943,35.872
32.929,35.901
32.906,35.937
32.871,35.978
32.823,36.022
32.762,36.067
32.689,36.113
32.607,36.158
32.518,36.2
32.424,36.24
32.329,36.277
32.234,36.309
32.14,36.334
32.05,36.352
31.966,36.36
31.89,36.357
31.821,36.344
31.76,36.32
31.706,36.285
31.657,36.238
31.616,36.181
31.58,36.113
31.55,36.038
31.524,35.954
31.501,35.865
31.481,35.771
31.465,35.673
31.45,35.572
31.436,35.467
31.423,35.36
31.409,35.252
31.395,35.142
31.38,35.032
31.364,34.923
31.347,34.815
31.328,34.709
31.307,34.604
31.285,34.502
31.262,34.402
31.239,34.304
31.217,34.209
31.193,34.119
31.17,34.033
31.149,33.948
31.13,33.865
31.112,33.781
31.096,33.697
31.084,33.613
31.075,33.527
31.072,33.441
31.077,33.355
31.09,33.267
31.116,33.179
31.156,33.091
31.215,33.004
31.296,32.918
31.405,32.835
31.548,32.757
31.734,32.682
31.975,32.611
32.281,32.543
32.66,32.476
33.115,32.41
33.645,32.343
34.246,32.275
34.907,32.206
35.616,32.137
36.359,32.068
37.121,32
37.885,31.934
38.635,31.869
39.354,31.804
40.03,31.741
40.651,31.68
41.207,31.62
41.694,31.561
42.109,31.502
42.451,31.443
42.72,31.382
42.919,31.321
43.051,31.259
43.121,31.195
43.134,31.131
43.096,31.068
43.012,31.007
42.891,30.95
42.738,30.896
42.561,30.847
42.367,30.805
42.162,30.771
41.951,30.748
41.739,30.741
41.529,30.754
41.322,30.795
41.12,30.871
40.922,30.993
40.729,31.17
40.542,31.411
40.36,31.724
40.182,32.114
40.01,32.584
39.842,33.134
39.678,33.758
39.517,34.449
39.358,35.196
39.2,35.985
39.043,36.799
38.885,37.621
38.726,38.432
38.567,39.215
38.407,39.952
38.247,40.631
38.088,41.238
37.929,41.766
37.77,42.209
37.611,42.564
37.453,42.831
37.296,43.015
37.142,43.12
36.993,43.156
36.849,43.13
36.711,43.052
36.58,42.932
36.454,42.777
36.334,42.599
36.219,42.403
36.112,42.197
36.011,41.987
35.918,41.776
35.832,41.569
35.754,41.366
35.684,41.17
35.62,40.98
35.562,40.799
35.509,40.626
35.461,40.463
35.419,40.307
35.382,40.158
35.35,40.013
35.321,39.871
35.295,39.73
35.27,39.589
35.245,39.444
35.217,39.297
35.188,39.145
35.157,38.989
35.122,38.827
35.085,38.661
35.044,38.492
35.001,38.321
34.955,38.151
34.907,37.982
34.856,37.816
34.805,37.655
34.753,37.5
34.701,37.352
34.65,37.214
34.599,37.086
34.547,36.971
34.494,36.868
34.441,36.78
34.387,36.704
34.331,36.643
34.274,36.596
34.216,36.563
34.154,36.543
34.09,36.537
34.023,36.551
33.956,36.588
33.887,36.646
33.819,36.72
33.751,36.803
33.683,36.891
33.617,36.976
33.553,37.052
33.488,37.115
33.422,37.162
33.352,37.191
33.281,37.201
33.207,37.192
33.134,37.167
33.06,37.124
32.988,37.067
32.917,36.997
32.849,36.918
32.785,36.831
32.723,36.74
32.666,36.645
32.612,36.548
32.562,36.449
32.513,36.35
32.469,36.251
32.428,36.153
32.389,36.056
32.353,35.961
32.317,35.868
32.281,35.774
32.246,35.68
32.209,35.585
32.171,35.488
32.13,35.389
32.087,35.288
32.04,35.183
31.992,35.073
31.943,34.958
31.893,34.837
31.843,34.713
31.794,34.586
31.747,34.46
31.703,34.336
31.662,34.215
31.624,34.097
31.591,33.984
31.56,33.874
31.532,33.769
31.506,33.666
31.482,33.566
31.458,33.468
31.434,33.371
31.41,33.278
31.385,33.187
31.361,33.098
31.335,33.012
31.307,32.928
31.28,32.848
31.252,32.772
31.226,32.701
31.201,32.634
31.179,32.571
31.158,32.51
31.139,32.452
31.122,32.395
31.106,32.34
31.09,32.287
31.076,32.236
31.065,32.186
31.057,32.136
31.056,32.087
31.063,32.036
31.081,31.984
31.109,31.931
31.149,31.878
31.203,31.826
31.272,31.774
31.36,31.724
31.47,31.675
31.609,31.628
31.788,31.583
32.018,31.539
32.307,31.494
32.663,31.45
33.088,31.404
33.582,31.357
34.14,31.308
34.755,31.258
35.417,31.207
36.111,31.154
36.823,31.101
37.537,31.047
38.236,30.992
38.906,30.938
39.532,30.884
40.105,30.834
40.616,30.789
41.059,30.752
41.431,30.726
41.732,30.714
41.962,30.722
42.124,30.755
42.222,30.82
42.262,30.925
42.25,31.078
42.193,31.287
42.096,31.562
41.968,31.909
41.815,32.331
41.644,32.829
41.463,33.401
41.276,34.039
41.089,34.735
40.903,35.476
40.719,36.246
40.539,37.031
40.363,37.813
40.19,38.574
40.018,39.298
39.848,39.971
39.68,40.581
39.513,41.119
39.348,41.578
39.186,41.957
39.025,42.253
38.867,42.47
38.711,42.611
38.555,42.682
38.398,42.691
38.241,42.646
38.084,42.557
37.928,42.432
37.775,42.28
37.624,42.108
37.476,41.923
37.331,41.729
37.189,41.533
37.05,41.337
36.913,41.145
36.78,40.958
36.65,40.779
36.524,40.606
36.402,40.442
36.284,40.288
36.17,40.144
36.061,40.009
35.957,39.882
35.858,39.759
35.764,39.639
35.676,39.519
35.595,39.398
35.521,39.276
35.452,39.152
35.388,39.024
35.328,38.892
35.273,38.756
35.223,38.618
35.179,38.477
35.14,38.336
35.108,38.195
35.082,38.055
35.06,37.915
35.04,37.777
35.023,37.642
35.007,37.513
34.992,37.39
34.977,37.276
34.962,37.172
34.947,37.077
34.932,36.993
34.915,36.92
34.895,36.858
34.871,36.809
34.841,36.772
34.806,36.748
34.765,36.736
34.721,36.734
34.672,36.742
34.62,36.759
34.566,36.785
34.509,36.819
34.45,36.859
34.392,36.904
34.334,36.951
34.278,36.998
34.223,37.043
34.169,37.084
34.118,37.12
34.07,37.149
34.026,37.17
33.983,37.181
33.94,37.183
33.898,37.176
33.853,37.158
33.806,37.129
33.755,37.089
33.7,37.039
33.641,36.979
33.579,36.91
33.514,36.832
33.447,36.746
33.378,36.651
33.308,36.548
33.236,36.44
33.165,36.327
33.094,36.209
33.024,36.089
32.958,35.967
32.895,35.845
32.834,35.723
32.777,35.603
32.725,35.486
32.676,35.37
32.632,35.256
32.59,35.144
32.551,35.033
32.514,34.924
32.479,34.818
32.444,34.713
32.41,34.611
32.375,34.509
32.339,34.408
32.304,34.306
32.267,34.204
32.23,34.1
32.192,33.996
32.154,33.892
32.114,33.788
32.074,33.683
32.033,33.58
31.992,33.479
31.951,33.381
31.911,33.286
31.871,33.196
31.833,33.111
31.797,33.031
31.763,32.954
31.732,32.879
31.703,32.804
31.675,32.729
31.649,32.653
31.624,32.576
31.599,32.501
31.573,32.427
31.548,32.354
31.523,32.284
31.498,32.218
31.475,32.156
31.455,32.098
31.436,32.044
31.421,31.993
31.409,31.944
31.403,31.898
31.404,31.854
31.414,31.81
31.434,31.768
31.466,31.725
31.51,31.681
31.568,31.636
31.643,31.589
31.736,31.539
31.848,31.487
31.982,31.433
32.143,31.377
32.333,31.319
32.561,31.261
32.833,31.202
33.153,31.144
33.526,31.087
33.949,31.032
34.42,30.978
34.931,30.925
35.473,30.872
36.036,30.82
36.606,30.769
37.173,30.722
37.722,30.681
38.243,30.65
38.724,30.631
39.157,30.629
39.535,30.647
39.853,30.693
40.111,30.773
40.308,30.898
40.447,31.078
40.533,31.321
40.568,31.634
40.56,32.021
40.512,32.484
40.432,33.022
40.325,33.628
40.198,34.296
40.057,35.013
39.908,35.766
39.754,36.538
39.6,37.313
39.448,38.073
39.3,38.801
39.156,39.482
39.015,40.104
38.876,40.658
38.74,41.136
38.606,41.535
38.476,41.855
38.349,42.097
38.224,42.265
38.101,42.363
37.978,42.396
37.857,42.371
37.735,42.297
37.614,42.183
37.493,42.038
37.372,41.869
37.253,41.685
37.133,41.489
37.015,41.289
36.897,41.089
36.779,40.893
36.662,40.703
36.544,40.521
36.426,40.348
36.308,40.184
36.19,40.031
36.074,39.888
35.96,39.753
35.851,39.625
35.748,39.503
35.65,39.384
35.557,39.266
35.471,39.15
35.39,39.033
35.316,38.915
35.248,38.796
35.186,38.674
35.13,38.549
35.08,38.419
35.036,38.285
34.997,38.147
34.964,38.006
34.935,37.862
34.911,37.715
34.893,37.567
34.878,37.42
34.866,37.277
34.857,37.141
34.849,37.013
34.844,36.896
34.839,36.79
34.835,36.698
34.831,36.621
34.826,36.558
34.82,36.511
34.812,36.479
34.801,36.462
34.785,36.457
34.766,36.463
34.742,36.48
34.715,36.507
34.684,36.54
34.65,36.579
34.615,36.622
34.577,36.667
34.538,36.713
34.5,36.757
34.462,36.799
34.426,36.837
34.391,36.87
34.355,36.895
34.318,36.914
34.28,36.924
34.24,36.927
34.196,36.922
34.148,36.908
34.096,36.885
34.04,36.853
33.979,36.813
33.915,36.763
33.847,36.704
33.779,36.636
33.71,36.558
33.643,36.471
33.577,36.376
33.513,36.275
33.451,36.168
33.391,36.056
33.332,35.941
33.275,35.822
33.219,35.701
33.165,35.579
33.112,35.455
33.059,35.331
33.007,35.206
32.956,35.081
32.906,34.958
32.858,34.837
32.811,34.718
32.765,34.602
32.721,34.489
32.678,34.378
32.637,34.27
32.596,34.165
32.557,34.062
32.518,33.961
32.481,33.861
32.445,33.76
32.41,33.659
32.376,33.555
32.342,33.45
32.308,33.345
32.273,33.239
32.237,33.134
32.202,33.03
32.167,32.926
32.133,32.825
32.099,32.725
32.067,32.628
32.037,32.535
32.008,32.445
31.98,32.36
31.954,32.278
31.928,32.201
31.901,32.125
31.874,32.051
31.845,31.978
31.815,31.905
31.786,31.833
31.758,31.762
31.734,31.694
31.717,31.628
31.709,31.564
31.713,31.504
31.729,31.446
31.761,31.39
31.809,31.337
31.877,31.287
31.966,31.24
32.078,31.197
32.217,31.156
32.387,31.116
32.597,31.077
32.855,31.035
33.167,30.99
33.538,30.942
33.969,30.891
34.458,30.839
35.001,30.786
35.59,30.732
36.214,30.678
36.86,30.624
37.515,30.571
38.164,30.519
38.794,30.468
39.391,30.418
39.945,30.37
40.448,30.324
40.893,30.28
41.277,30.236
41.599,30.193
41.856,30.151
42.051,30.107
42.187,30.063
42.268,30.017
42.298,29.972
42.284,29.931
42.231,29.895
42.145,29.868
42.032,29.854
41.9,29.857
41.753,29.885
41.597,29.947
41.437,30.062
41.275,30.246
41.113,30.513
40.953,30.868
40.794,31.313
40.638,31.847
40.482,32.463
40.329,33.153
40.178,33.904
40.03,34.703
39.883,35.533
39.739,36.377
39.596,37.216
39.454,38.034
39.311,38.816
39.166,39.547
39.019,40.216
38.87,40.813
38.72,41.33
38.57,41.764
38.421,42.113
38.273,42.379
38.127,42.566
37.983,42.678
37.841,42.723
37.701,42.708
37.563,42.641
37.426,42.533
37.293,42.391
37.163,42.224
37.037,42.039
36.916,41.841
36.8,41.638
36.69,41.433
36.587,41.231
36.489,41.035
36.399,40.847
36.315,40.665
36.239,40.491
36.171,40.324
36.11,40.163
36.056,40.008
36.009,39.857
35.967,39.709
35.929,39.566
35.893,39.426
35.858,39.288
35.826,39.151
35.796,39.013
35.767,38.873
35.738,38.731
35.709,38.585
35.68,38.436
35.649,38.283
35.618,38.127
35.586,37.969
35.553,37.81
35.52,37.652
35.487,37.497
35.454,37.347
35.421,37.204
35.386,37.069
35.351,36.943
35.315,36.829
35.277,36.727
35.237,36.638
35.195,36.562
35.15,36.501
35.102,36.455
35.051,36.422
34.998,36.403
34.943,36.397
34.887,36.402
34.828,36.419
34.767,36.444
34.704,36.477
34.641,36.514
34.577,36.553
34.513,36.593
34.449,36.631
34.386,36.667
34.324,36.701
34.263,36.73
34.203,36.754
34.145,36.77
34.088,36.777
34.032,36.774
33.974,36.763
33.916,36.742
33.856,36.712
33.796,36.672
33.734,36.623
33.671,36.565
33.607,36.5
33.542,36.429
33.476,36.352
33.41,36.27
33.342,36.182
33.274,36.087
33.207,35.986
33.141,35.879
33.077,35.767
33.016,35.652
32.958,35.534
32.902,35.414
32.849,35.292
32.799,35.169
32.752,35.045
32.706,34.92
32.663,34.796
32.621,34.673
32.581,34.553
32.541,34.437
32.502,34.324
32.464,34.212
32.426,34.101
32.388,33.99
32.35,33.878
32.312,33.764
32.275,33.65
32.237,33.535
32.198,33.418
32.16,33.301
32.123,33.184
32.088,33.068
32.054,32.953
32.022,32.841
31.992,32.733
31.965,32.63
31.94,32.531
31.917,32.436
31.894,32.344
31.873,32.254
31.852,32.164
31.833,32.074
31.817,31.983
31.805,31.892
31.798,31.801
31.798,31.711
31.807,31.622
31.826,31.536
31.857,31.45
31.904,31.365
31.969,31.279
32.054,31.195
32.165,31.111
32.308,31.03
32.492,30.951
32.726,30.876
33.019,30.803
33.377,30.733
33.802,30.665
34.293,30.599
34.848,30.532
35.458,30.467
36.113,30.401
36.799,30.336
37.504,30.271
38.21,30.206
38.902,30.141
39.567,30.074
40.191,30.007
40.767,29.938
41.284,29.87
41.737,29.803
42.123,29.737
42.442,29.674
42.694,29.614
42.882,29.558
43.01,29.504
43.083,29.453
43.105,29.405
43.083,29.358
43.022,29.314
42.928,29.272
42.807,29.23
42.664,29.188
42.506,29.145
42.338,29.101
42.164,29.055
41.988,29.008
41.812,28.959
41.637,28.911
41.465,28.863
41.295,28.819
41.128,28.784
40.961,28.764
40.796,28.767
40.633,28.802
40.471,28.882
40.311,29.018
40.152,29.22
39.995,29.499
39.839,29.861
39.682,30.312
39.524,30.852
39.365,31.477
39.205,32.18
39.044,32.951
38.884,33.775
38.725,34.635
38.57,35.515
38.417,36.394
38.266,37.252
38.118,38.073
37.972,38.839
37.83,39.536
37.69,40.153
37.553,40.684
37.422,41.125
37.295,41.475
37.175,41.736
37.062,41.914
36.955,42.015
36.856,42.046
36.763,42.016
36.675,41.935
36.593,41.812
36.517,41.656
36.446,41.474
36.382,41.276
36.323,41.067
36.268,40.854
36.216,40.642
36.167,40.433
36.12,40.231
36.075,40.036
36.032,39.849
35.99,39.669
35.95,39.496
35.912,39.329
35.875,39.166
35.839,39.008
35.802,38.857
35.766,38.716
35.728,38.582
35.691,38.453
35.653,38.325
35.615,38.197
35.575,38.064
35.535,37.924
35.491,37.775
35.438,37.617
35.371,37.45
35.29,37.275
35.195,37.095
35.091,36.914
34.982,36.734
34.872,36.559
34.767,36.391
34.67,36.234
34.584,36.09
34.509,35.962
34.446,35.851
34.395,35.759
34.356,35.686
34.325,35.633
34.302,35.598
34.284,35.582
34.268,35.582
34.25,35.6
34.23,35.634
34.204,35.682
34.173,35.741
34.135,35.809
34.087,35.882
34.031,35.956
33.967,36.029
33.897,36.1
33.822,36.167
33.743,36.227
33.661,36.278
33.577,36.321
33.494,36.353
33.412,36.376
33.332,36.388
33.254,36.39
33.18,36.381
33.109,36.361
33.043,36.328
32.982,36.282
32.924,36.225
32.87,36.157
32.819,36.079
32.77,35.993
32.723,35.9
32.678,35.801
32.635,35.697
32.593,35.589
32.551,35.478
32.51,35.365
32.47,35.251
32.43,35.136
32.39,35.019
32.348,34.899
32.306,34.778
32.264,34.656
32.221,34.531
32.179,34.406
32.137,34.281
32.096,34.157
32.058,34.034
32.022,33.912
31.987,33.791
31.954,33.671
31.922,33.551
31.89,33.43
31.858,33.31
31.827,33.189
31.795,33.068
31.764,32.946
31.732,32.822
31.701,32.698
31.67,32.574
31.638,32.45
31.607,32.327
31.577,32.206
31.546,32.088
31.516,31.972
31.489,31.86
31.466,31.75
31.446,31.643
31.433,31.538
31.427,31.434
31.431,31.33
31.447,31.226
31.477,31.121
31.523,31.016
31.586,30.911
31.67,30.808
31.777,30.706
31.913,30.608
32.086,30.512
32.306,30.42
32.583,30.329
32.922,30.242
33.328,30.156
33.8,30.072
34.334,29.99
34.925,29.91
35.561,29.83
36.229,29.751
36.917,29.674
37.612,29.598
38.299,29.522
38.968,29.447
39.604,29.374
40.198,29.303
40.74,29.233
41.223,29.165
41.641,29.099
41.991,29.036
42.271,28.976
42.483,28.917
42.632,28.861
42.722,28.807
42.759,28.752
42.75,28.697
42.703,28.642
42.623,28.588
42.517,28.534
42.392,28.483
42.251,28.435
42.098,28.392
41.937,28.355
41.768,28.327
41.596,28.309
41.421,28.306
41.247,28.324
41.074,28.37
40.904,28.454
40.737,28.583
40.574,28.764
40.414,29.003
40.257,29.31
40.101,29.693
39.948,30.158
39.795,30.711
39.645,31.353
39.497,32.082
39.351,32.889
39.207,33.763
39.065,34.687
38.924,35.643
38.781,36.61
38.636,37.566
38.486,38.489
38.333,39.361
38.176,40.162
38.018,40.881
37.859,41.506
37.7,42.032
37.542,42.456
37.387,42.779
37.235,43.003
37.087,43.136
36.944,43.187
36.807,43.165
36.677,43.083
36.555,42.95
36.441,42.778
36.334,42.576
36.236,42.356
36.147,42.124
36.064,41.888
35.988,41.655
35.919,41.427
35.857,41.207
35.801,40.998
35.75,40.801
35.704,40.615
35.661,40.441
35.62,40.275
35.58,40.115
35.542,39.96
35.51,39.806
35.486,39.652
35.47,39.497
35.458,39.339
35.446,39.176
35.431,39.008
35.412,38.834
35.386,38.654
35.352,38.469
35.309,38.28
35.258,38.088
35.2,37.895
35.137,37.702
35.069,37.511
34.997,37.322
34.924,37.138
34.85,36.963
34.776,36.797
34.703,36.644
34.631,36.505
34.56,36.381
34.49,36.275
34.419,36.185
34.349,36.113
34.28,36.056
34.213,36.013
34.148,35.983
34.083,35.964
34.018,35.955
33.955,35.954
33.894,35.963
33.835,35.978
33.777,36
33.72,36.027
33.665,36.057
33.611,36.089
33.557,36.121
33.503,36.15
33.448,36.175
33.39,36.195
33.331,36.21
33.269,36.217
33.204,36.217
33.137,36.209
33.069,36.193
32.998,36.167
32.927,36.133
32.856,36.09
32.786,36.037
32.718,35.974
32.652,35.903
32.587,35.823
32.525,35.735
32.465,35.64
32.41,35.538
32.357,35.43
32.308,35.315
32.26,35.195
32.213,35.071
32.166,34.943
32.119,34.813
32.072,34.68
32.024,34.546
31.975,34.411
31.928,34.277
31.881,34.144
31.835,34.013
31.792,33.885
31.751,33.758
31.712,33.634
31.674,33.51
31.638,33.387
31.604,33.264
31.57,33.142
31.537,33.021
31.505,32.9
31.473,32.78
31.442,32.662
31.411,32.545
31.381,32.429
31.352,32.314
31.323,32.2
31.296,32.087
31.27,31.973
31.246,31.859
31.223,31.745
31.203,31.632
31.185,31.518
31.172,31.403
31.163,31.288
31.16,31.172
31.164,31.057
31.179,30.943
31.205,30.832
31.244,30.724
31.3,30.619
31.374,30.518
31.471,30.419
31.594,30.323
31.748,30.229
31.942,30.136
32.184,30.046
32.482,29.958
32.839,29.873
33.258,29.792
33.735,29.713
34.267,29.636
34.844,29.56
35.456,29.484
36.09,29.409
36.734,29.335
37.372,29.264
37.992,29.198
38.582,29.136
39.13,29.078
39.627,29.023
40.069,28.971
40.451,28.919
40.768,28.865
41.021,28.809
41.211,28.75
41.34,28.688
41.413,28.625
41.436,28.559
41.414,28.493
41.355,28.427
41.267,28.36
41.155,28.294
41.026,28.228
40.886,28.164
40.739,28.102
40.59,28.044
40.441,27.993
40.292,27.951
40.145,27.922
40,27.911
39.857,27.925
39.714,27.971
39.573,28.057
39.433,28.194
39.294,28.394
39.156,28.666
39.019,29.022
38.882,29.469
38.744,30.012
38.606,30.651
38.465,31.384
38.322,32.206
38.176,33.107
38.03,34.073
37.883,35.088
37.738,36.13
37.593,37.18
37.45,38.215
37.309,39.215
37.17,40.159
37.031,41.031
36.893,41.817
36.758,42.506
36.625,43.092
36.497,43.57
36.372,43.942
36.252,44.211
36.137,44.385
36.026,44.472
35.921,44.48
35.82,44.421
35.724,44.305
35.633,44.145
35.548,43.951
35.469,43.735
35.395,43.504
35.326,43.269
35.263,43.034
35.206,42.805
35.155,42.583
35.109,42.372
35.068,42.173
35.031,41.985
34.996,41.81
34.962,41.645
34.929,41.489
34.895,41.339
34.861,41.192
34.825,41.046
34.788,40.897
34.748,40.746
34.708,40.589
34.668,40.427
34.629,40.259
34.592,40.085
34.558,39.904
34.525,39.717
34.495,39.522
34.467,39.322
34.44,39.119
34.412,38.915
34.382,38.713
34.351,38.515
34.317,38.325
34.279,38.144
34.236,37.976
34.189,37.822
34.135,37.684
34.076,37.561
34.012,37.455
33.944,37.365
33.872,37.29
33.798,37.23
33.722,37.183
33.645,37.147
33.568,37.121
33.493,37.105
33.42,37.096
33.35,37.093
33.284,37.096
33.223,37.102
33.165,37.11
33.113,37.118
33.064,37.124
33.018,37.128
32.974,37.127
32.931,37.121
32.888,37.109
32.845,37.092
32.801,37.068
32.757,37.039
32.712,37.004
32.666,36.962
32.62,36.914
32.575,36.86
32.532,36.8
32.489,36.733
32.445,36.658
32.4,36.576
32.353,36.484
32.304,36.384
32.253,36.273
32.201,36.151
32.148,36.022
32.095,35.887
32.043,35.747
31.993,35.605
31.945,35.461
31.9,35.316
31.858,35.169
31.819,35.021
31.782,34.873
31.748,34.724
31.717,34.577
31.687,34.431
31.658,34.287
31.63,34.146
31.601,34.007
31.572,33.871
31.542,33.737
31.512,33.605
31.481,33.475
31.451,33.345
31.421,33.216
31.39,33.084
31.36,32.948
31.329,32.808
31.3,32.665
31.273,32.519
31.249,32.373
31.227,32.227
31.208,32.083
31.191,31.941
31.177,31.803
31.167,31.668
31.16,31.539
31.16,31.415
31.166,31.297
31.18,31.184
31.204,31.077
31.239,30.975
31.289,30.878
31.355,30.784
31.442,30.694
31.55,30.604
31.683,30.515
31.844,30.427
32.039,30.341
32.273,30.257
32.551,30.175
32.876,30.095
33.252,30.015
33.674,29.933
34.139,29.848
34.636,29.761
35.156,29.671
35.689,29.578
36.221,29.485
36.741,29.391
37.238,29.3
37.704,29.21
38.131,29.122
38.514,29.037
38.846,28.954
39.126,28.875
39.351,28.798
39.523,28.726
39.643,28.657
39.711,28.592
39.734,28.529
39.716,28.469
39.662,28.411
39.579,28.353
39.473,28.295
39.352,28.236
39.221,28.177
39.085,28.116
38.947,28.054
38.81,27.991
38.674,27.926
38.541,27.861
38.411,27.796
38.285,27.732
38.163,27.671
38.045,27.614
37.93,27.562
37.816,27.519
37.703,27.487
37.589,27.469
37.475,27.472
37.359,27.501
37.241,27.564
37.122,27.672
37.001,27.836
36.879,28.065
36.757,28.371
36.634,28.764
36.511,29.248
36.387,29.829
36.264,30.506
36.141,31.279
36.02,32.141
35.901,33.084
35.787,34.092
35.676,35.151
35.57,36.238
35.468,37.334
35.371,38.414
35.28,39.459
35.194,40.446
35.113,41.358
35.036,42.18
34.964,42.901
34.897,43.515
34.835,44.019
34.777,44.412
34.725,44.698
34.677,44.884
34.634,44.978
34.596,44.991
34.563,44.936
34.533,44.825
34.505,44.671
34.48,44.484
34.457,44.274
34.436,44.05
34.418,43.82
34.402,43.588
34.389,43.359
34.377,43.138
34.365,42.926
34.353,42.724
34.34,42.531
34.325,42.346
34.308,42.167
34.288,41.993
34.265,41.822
34.239,41.651
34.21,41.481
34.179,41.309
34.145,41.135
34.108,40.959
34.07,40.781
34.031,40.6
33.992,40.417
33.952,40.233
33.912,40.047
33.873,39.861
33.833,39.675
33.795,39.49
33.757,39.309
33.72,39.131
33.683,38.957
33.647,38.787
33.61,38.622
33.573,38.464
33.535,38.314
33.495,38.174
33.452,38.045
33.406,37.929
33.357,37.823
33.306,37.73
33.253,37.649
33.198,37.58
33.141,37.523
33.084,37.478
33.026,37.443
32.97,37.416
32.917,37.396
32.866,37.381
32.818,37.37
32.773,37.362
32.73,37.356
32.686,37.35
32.643,37.343
32.598,37.332
32.553,37.318
32.506,37.298
32.456,37.272
32.405,37.24
32.352,37.201
32.299,37.154
32.245,37.099
32.193,37.035
32.142,36.963
32.095,36.884
32.05,36.798
32.007,36.707
31.966,36.611
31.927,36.509
31.89,36.401
31.856,36.286
31.822,36.163
31.791,36.034
31.76,35.898
31.729,35.757
31.698,35.611
31.667,35.46
31.638,35.306
31.611,35.149
31.586,34.989
31.563,34.828
31.542,34.668
31.522,34.508
31.502,34.348
31.483,34.188
31.464,34.029
31.445,33.869
31.425,33.709
31.404,33.548
31.382,33.388
31.359,33.229
31.335,33.07
31.314,32.913
31.295,32.757
31.282,32.602
31.275,32.449
31.277,32.298
31.288,32.151
31.311,32.006
31.347,31.863
31.397,31.723
31.466,31.584
31.564,31.446
31.697,31.309
31.866,31.174
32.065,31.04
32.29,30.908
32.534,30.779
32.793,30.654
33.062,30.533
33.341,30.414
33.628,30.3
33.924,30.196
34.229,30.106
34.543,30.028
34.865,29.961
35.191,29.902
35.519,29.847
35.842,29.793
36.155,29.737
36.454,29.677
36.731,29.61
36.983,29.537
37.204,29.457
37.39,29.369
37.541,29.275
37.657,29.175
37.737,29.072
37.784,28.967
37.799,28.861
37.787,28.755
37.749,28.651
37.689,28.548
37.61,28.448
37.518,28.353
37.416,28.262
37.309,28.176
37.199,28.094
37.089,28.017
36.981,27.945
36.878,27.878
36.781,27.816
36.688,27.758
36.6,27.704
36.514,27.654
36.431,27.606
36.351,27.56
36.272,27.516
36.195,27.472
36.119,27.426
36.042,27.379
35.965,27.33
35.886,27.279
35.806,27.226
35.725,27.172
35.644,27.118
35.56,27.069
35.474,27.029
35.387,27
35.297,26.98
35.206,26.97
35.114,26.968
35.02,26.974
34.927,26.992
34.838,27.023
34.753,27.073
34.674,27.15
34.603,27.264
34.54,27.426
34.485,27.646
34.436,27.938
34.395,28.311
34.359,28.775
34.329,29.339
34.302,30.004
34.279,30.769
34.257,31.628
34.237,32.571
34.22,33.584
34.203,34.651
34.187,35.751
34.171,36.863
34.156,37.966
34.143,39.036
34.133,40.054
34.124,41.002
34.116,41.864
34.11,42.628
34.106,43.287
34.104,43.836
34.103,44.274
34.103,44.605
34.104,44.835
34.105,44.969
34.105,45.02
34.104,44.996
34.102,44.91
34.098,44.773
34.092,44.597
34.082,44.391
34.069,44.163
34.053,43.922
34.035,43.675
34.014,43.426
33.989,43.18
33.96,42.937
33.929,42.701
33.896,42.472
33.86,42.25
33.821,42.037
33.78,41.832
33.737,41.635
33.692,41.443
33.646,41.256
33.601,41.073
33.556,40.892
33.511,40.712
33.466,40.533
33.419,40.352
33.372,40.169
33.324,39.983
33.276,39.794
33.229,39.602
33.181,39.408
33.135,39.212
33.089,39.015
33.046,38.819
33.003,38.626
32.962,38.437
32.92,38.255
32.879,38.082
32.839,37.918
32.799,37.764
32.76,37.62
32.72,37.487
32.679,37.365
32.638,37.253
32.596,37.152
32.555,37.06
32.514,36.98
32.474,36.909
32.435,36.848
32.396,36.796
32.359,36.751
32.323,36.711
32.29,36.676
32.258,36.645
32.228,36.615
32.2,36.586
32.173,36.557
32.146,36.527
32.119,36.496
32.092,36.462
32.065,36.425
32.039,36.382
32.014,36.333
31.988,36.279
31.962,36.22
31.935,36.156
31.908,36.087
31.88,36.013
31.853,35.936
31.827,35.855
31.804,35.771
31.784,35.683
31.768,35.592
31.757,35.497
31.753,35.397
31.756,35.292
31.769,35.182
31.793,35.069
31.828,34.952
31.877,34.831
31.941,34.707
32.021,34.579
32.118,34.447
32.235,34.31
32.373,34.169
32.536,34.024
32.722,33.874
32.936,33.72
33.182,33.561
33.464,33.398
33.787,33.232
34.151,33.066
34.557,32.9
34.999,32.736
35.469,32.576
35.957,32.421
36.451,32.269
36.937,32.121
37.404,31.976
37.841,31.834
38.237,31.694
38.586,31.557
38.88,31.422
39.117,31.291
39.298,31.164
39.423,31.04
39.496,30.919
39.522,30.801
39.506,30.685
39.453,30.569
39.37,30.455
39.264,30.342
39.141,30.232
39.007,30.126
38.868,30.023
38.727,29.922
38.587,29.823
38.452,29.723
38.321,29.621
38.197,29.518
38.079,29.415
37.966,29.311
37.859,29.209
37.757,29.109
37.659,29.011
37.562,28.915
37.467,28.818
37.373,28.723
37.279,28.628
37.182,28.534
37.083,28.441
36.98,28.352
36.874,28.264
36.766,28.18
36.657,28.098
36.546,28.019
36.433,27.942
36.318,27.868
36.202,27.797
36.085,27.728
35.971,27.66
35.859,27.594
35.751,27.529
35.648,27.467
35.55,27.407
35.459,27.35
35.375,27.297
35.299,27.246
35.231,27.197
35.171,27.149
35.118,27.103
35.072,27.059
35.033,27.017
34.998,26.978
34.968,26.941
34.942,26.905
34.917,26.869
34.895,26.834
34.875,26.797
34.856,26.758
34.837,26.718
34.819,26.677
34.8,26.637
34.782,26.598
34.765,26.564
34.75,26.536
34.736,26.517
34.726,26.51
34.716,26.519
34.708,26.553
34.701,26.617
34.694,26.722
34.687,26.877
34.677,27.091
34.664,27.373
34.648,27.73
34.629,28.168
34.605,28.693
34.577,29.305
34.546,30.003
34.511,30.783
34.474,31.637
34.435,32.554
34.395,33.519
34.353,34.518
34.311,35.532
34.267,36.541
34.223,37.528
34.177,38.476
34.132,39.37
34.087,40.196
34.043,40.944
33.997,41.606
33.951,42.176
33.902,42.653
33.85,43.036
33.797,43.329
33.741,43.535
33.684,43.662
33.628,43.716
33.574,43.706
33.522,43.643
33.473,43.533
33.426,43.388
33.381,43.214
33.338,43.018
33.297,42.808
33.257,42.586
33.218,42.36
33.18,42.133
33.142,41.908
33.104,41.687
33.065,41.471
33.024,41.261
32.981,41.057
32.934,40.859
32.885,40.664
32.835,40.472
32.784,40.281
32.734,40.089
32.684,39.895
32.636,39.697
32.59,39.496
32.548,39.29
32.51,39.08
32.476,38.867
32.445,38.65
32.417,38.431
32.39,38.212
32.363,37.992
32.336,37.775
32.308,37.562
32.279,37.353
32.25,37.152
32.22,36.957
32.19,36.77
32.16,36.591
32.129,36.422
32.097,36.262
32.066,36.112
32.036,35.972
32.007,35.84
31.981,35.718
31.958,35.607
31.937,35.506
31.92,35.415
31.91,35.334
31.908,35.261
31.916,35.194
31.936,35.133
31.97,35.074
32.021,35.017
32.089,34.961
32.175,34.905
32.281,34.85
32.41,34.793
32.567,34.734
32.755,34.673
32.982,34.608
33.253,34.54
33.574,34.469
33.947,34.395
34.37,34.318
34.839,34.237
35.347,34.153
35.882,34.065
36.435,33.971
36.99,33.874
37.535,33.771
38.056,33.665
38.541,33.554
38.981,33.439
39.366,33.319
39.692,33.193
39.955,33.061
40.157,32.924
40.299,32.784
40.385,32.642
40.421,32.502
40.411,32.364
40.364,32.229
40.284,32.098
40.178,31.969
40.05,31.844
39.906,31.722
39.75,31.603
39.588,31.487
39.423,31.374
39.258,31.261
39.098,31.148
38.944,31.032
38.797,30.914
38.657,30.795
38.525,30.674
38.4,30.553
38.281,30.433
38.167,30.317
38.058,30.203
37.954,30.094
37.853,29.988
37.754,29.885
37.656,29.785
37.557,29.687
37.458,29.592
37.358,29.5
37.258,29.41
37.156,29.324
37.05,29.242
36.941,29.165
36.829,29.092
36.715,29.023
36.601,28.959
36.485,28.897
36.37,28.837
36.257,28.78
36.148,28.725
36.043,28.671
35.944,28.617
35.852,28.563
35.767,28.508
35.691,28.451
35.622,28.392
35.561,28.331
35.508,28.269
35.463,28.205
35.424,28.14
35.391,28.075
35.363,28.009
35.341,27.943
35.323,27.878
35.309,27.815
35.296,27.755
35.284,27.699
35.273,27.648
35.261,27.598
35.248,27.541
35.234,27.474
35.217,27.399
35.199,27.318
35.177,27.235
35.153,27.156
35.126,27.084
35.098,27.024
35.067,26.976
35.034,26.942
34.999,26.923
34.962,26.916
34.924,26.919
34.884,26.931
34.844,26.948
34.802,26.968
34.76,26.987
34.717,27.003
34.674,27.014
34.631,27.021
34.589,27.024
34.547,27.023
34.506,27.02
34.464,27.018
34.422,27.017
34.38,27.019
34.337,27.029
34.294,27.046
34.251,27.077
34.205,27.129
34.157,27.209
34.108,27.329
34.057,27.496
34.007,27.718
33.958,28.001
33.91,28.348
33.864,28.762
33.82,29.243
33.776,29.788
33.732,30.392
33.687,31.049
33.641,31.749
33.595,32.481
33.547,33.233
33.497,33.992
33.447,34.747
33.396,35.485
33.344,36.195
33.292,36.865
33.241,37.486
33.191,38.05
33.142,38.551
33.093,38.985
33.043,39.35
32.995,39.644
32.947,39.87
32.9,40.029
32.854,40.127
32.808,40.168
32.761,40.158
32.715,40.104
32.669,40.011
32.623,39.885
32.579,39.734
32.537,39.563
32.496,39.38
32.458,39.189
32.422,38.995
32.387,38.8
32.354,38.605
32.322,38.412
32.292,38.222
32.265,38.035
32.241,37.852
32.219,37.673
32.198,37.496
32.178,37.319
32.158,37.143
32.139,36.967
32.12,36.789
32.101,36.61
32.082,36.43
32.061,36.249
32.04,36.066
32.02,35.882
32.002,35.698
31.989,35.516
31.983,35.335
31.987,35.16
32.003,34.989
32.031,34.826
32.073,34.667
32.132,34.504
32.209,34.33
32.307,34.147
32.428,33.957
32.576,33.767
32.756,33.584
32.975,33.412
33.238,33.256
33.552,33.118
33.92,33.002
34.341,32.909
34.813,32.839
35.328,32.792
35.877,32.764
36.445,32.754
37.02,32.755
37.587,32.764
38.131,32.778
38.64,32.793
39.105,32.806
39.516,32.815
39.867,32.819
40.156,32.815
40.381,32.802
40.545,32.781
40.651,32.751
40.703,32.711
40.707,32.663
40.669,32.607
40.594,32.544
40.489,32.474
40.361,32.4
40.215,32.322
40.057,32.241
39.894,32.158
39.73,32.072
39.568,31.984
39.41,31.897
39.257,31.808
39.111,31.721
38.972,31.634
38.841,31.55
38.716,31.466
38.597,31.384
38.483,31.303
38.374,31.223
38.269,31.145
38.167,31.066
38.068,30.988
37.968,30.908
37.868,30.826
37.766,30.743
37.661,30.66
37.553,30.578
37.442,30.497
37.328,30.419
37.211,30.345
37.093,30.273
36.973,30.204
36.854,30.14
36.737,30.079
36.622,30.021
36.509,29.968
36.4,29.918
36.297,29.87
36.198,29.824
36.105,29.778
36.017,29.732
35.936,29.685
35.86,29.638
35.79,29.591
35.725,29.545
35.666,29.501
35.612,29.457
35.563,29.414
35.517,29.372
35.475,29.33
35.437,29.289
35.404,29.249
35.374,29.211
35.346,29.174
35.32,29.139
35.296,29.105
35.272,29.072
35.248,29.041
35.225,29.01
35.202,28.978
35.178,28.946
35.154,28.913
35.132,28.879
35.11,28.845
35.089,28.811
35.068,28.778
35.048,28.745
35.027,28.715
35.005,28.686
34.982,28.658
34.957,28.631
34.931,28.606
34.903,28.583
34.872,28.563
34.839,28.546
34.804,28.532
34.768,28.521
34.729,28.511
34.689,28.502
34.649,28.492
34.608,28.48
34.567,28.466
34.527,28.452
34.487,28.437
34.445,28.422
34.401,28.408
34.355,28.398
34.306,28.392
34.255,28.392
34.203,28.399
34.151,28.413
34.097,28.438
34.043,28.475
33.988,28.53
33.933,28.611
33.878,28.726
33.822,28.884
33.766,29.093
33.709,29.358
33.653,29.684
33.598,30.074
33.542,30.526
33.487,31.039
33.432,31.609
33.379,32.229
33.326,32.889
33.276,33.579
33.228,34.287
33.184,35.002
33.141,35.712
33.099,36.404
33.058,37.068
33.017,37.693
32.978,38.272
32.938,38.798
32.899,39.267
32.858,39.676
32.816,40.022
32.773,40.306
32.728,40.529
32.682,40.692
32.636,40.801
32.59,40.861
32.546,40.874
32.504,40.849
32.462,40.788
32.423,40.699
32.385,40.587
32.349,40.455
32.316,40.308
32.285,40.149
32.258,39.982
32.232,39.808
32.208,39.63
32.185,39.451
32.16,39.272
32.135,39.094
32.109,38.918
32.081,38.743
32.05,38.568
32.017,38.393
31.984,38.217
31.952,38.039
31.922,37.86
31.895,37.679
31.873,37.498
31.855,37.318
31.842,37.139
31.834,36.963
31.831,36.789
31.836,36.618
31.85,36.45
31.873,36.284
31.91,36.121
31.959,35.962
32.024,35.807
32.106,35.657
32.204,35.513
32.321,35.376
32.46,35.246
32.625,35.123
32.824,35.006
33.066,34.896
33.358,34.793
33.706,34.697
34.112,34.608
34.575,34.527
35.089,34.454
35.643,34.388
36.228,34.329
36.829,34.276
37.432,34.23
38.022,34.188
38.587,34.151
39.113,34.116
39.589,34.082
40.008,34.046
40.361,34.01
40.646,33.973
40.859,33.933
41.004,33.893
41.084,33.85
41.105,33.806
41.074,33.761
40.998,33.714
40.885,33.665
40.742,33.616
40.578,33.566
40.399,33.515
40.214,33.461
40.028,33.405
39.845,33.346
39.668,33.284
39.5,33.217
39.341,33.147
39.191,33.071
39.051,32.99
38.92,32.905
38.797,32.815
38.681,32.722
38.57,32.628
38.463,32.533
38.357,32.438
38.252,32.344
38.146,32.25
38.039,32.157
37.93,32.065
37.818,31.976
37.705,31.888
37.59,31.803
37.474,31.721
37.358,31.64
37.242,31.563
37.126,31.487
37.01,31.413
36.896,31.341
36.782,31.27
36.67,31.2
36.561,31.132
36.454,31.066
36.351,31
36.252,30.935
36.158,30.871
36.068,30.808
35.983,30.746
35.903,30.684
35.829,30.625
35.76,30.569
35.697,30.516
35.641,30.466
35.591,30.421
35.545,30.378
35.505,30.337
35.469,30.299
35.437,30.262
35.409,30.227
35.384,30.194
35.362,30.164
35.343,30.134
35.326,30.106
35.311,30.078
35.298,30.049
35.286,30.017
35.276,29.982
35.265,29.945
35.253,29.906
35.239,29.866
35.225,29.826
35.208,29.787
35.188,29.748
35.166,29.711
35.142,29.674
35.116,29.637
35.088,29.599
35.058,29.56
35.025,29.521
34.99,29.484
34.954,29.45
34.915,29.42
34.875,29.395
34.834,29.376
34.793,29.361
34.75,29.349
34.705,29.342
34.658,29.339
34.608,29.34
34.558,29.345
34.506,29.354
34.453,29.366
34.399,29.382
34.343,29.4
34.286,29.424
34.228,29.454
34.168,29.493
34.107,29.546
34.046,29.62
33.985,29.726
33.924,29.874
33.864,30.074
33.805,30.335
33.747,30.664
33.691,31.064
33.638,31.536
33.587,32.082
33.539,32.696
33.493,33.374
33.448,34.108
33.404,34.887
33.36,35.703
33.314,36.541
33.267,37.39
33.218,38.237
33.169,39.066
33.119,39.866
33.069,40.626
33.019,41.335
32.97,41.985
32.922,42.569
32.876,43.081
32.833,43.52
32.792,43.882
32.755,44.166
32.719,44.374
32.685,44.511
32.652,44.584
32.62,44.6
32.59,44.568
32.562,44.496
32.536,44.391
32.512,44.261
32.49,44.112
32.467,43.947
32.444,43.771
32.42,43.589
32.395,43.403
32.371,43.215
32.346,43.025
32.321,42.834
32.296,42.641
32.269,42.448
32.242,42.253
32.213,42.055
32.184,41.855
32.155,41.651
32.126,41.445
32.095,41.236
32.063,41.024
32.028,40.809
31.992,40.592
31.955,40.373
31.919,40.152
31.886,39.93
31.856,39.707
31.832,39.484
31.815,39.264
31.804,39.047
31.802,38.835
31.811,38.631
31.831,38.433
31.865,38.245
31.913,38.067
31.976,37.899
32.056,37.742
32.153,37.595
32.269,37.458
32.405,37.33
32.563,37.211
32.747,37.101
32.963,36.999
33.217,36.904
33.518,36.816
33.87,36.733
34.276,36.655
34.731,36.583
35.228,36.514
35.759,36.451
36.31,36.392
36.871,36.337
37.428,36.285
37.965,36.233
38.471,36.182
38.933,36.129
39.343,36.076
39.694,36.022
39.982,35.969
40.208,35.913
40.371,35.856
40.473,35.795
40.519,35.731
40.512,35.663
40.46,35.591
40.37,35.516
40.249,35.436
40.105,35.352
39.944,35.261
39.772,35.165
39.594,35.064
39.415,34.958
39.24,34.85
39.072,34.74
38.911,34.629
38.76,34.515
38.619,34.4
38.486,34.283
38.361,34.166
38.244,34.049
38.135,33.933
38.03,33.819
37.927,33.706
37.825,33.596
37.722,33.486
37.619,33.377
37.516,33.27
37.413,33.164
37.309,33.059
37.205,32.956
37.102,32.854
37,32.753
36.9,32.652
36.801,32.551
36.703,32.451
36.607,32.349
36.512,32.247
36.418,32.144
36.325,32.042
36.234,31.94
36.145,31.84
36.057,31.742
35.97,31.647
35.886,31.554
35.805,31.466
35.728,31.382
35.656,31.303
35.589,31.229
35.527,31.16
35.471,31.095
35.422,31.031
35.38,30.97
35.346,30.909
35.318,30.849
35.296,30.789
35.278,30.73
35.264,30.672
35.253,30.615
35.244,30.557
35.237,30.501
35.23,30.445
35.223,30.39
35.214,30.335
35.204,30.28
35.191,30.223
35.174,30.166
35.154,30.107
35.131,30.047
35.104,29.986
35.075,29.924
35.042,29.862
35.008,29.8
34.972,29.739
34.935,29.68
34.897,29.623
34.86,29.568
34.823,29.516
34.789,29.467
34.756,29.421
34.725,29.379
34.693,29.342
34.662,29.309
34.629,29.28
34.596,29.255
34.561,29.234
34.524,29.217
34.486,29.203
34.447,29.191
34.405,29.183
34.361,29.178
34.313,29.176
34.262,29.18
34.208,29.19
34.151,29.21
34.093,29.242
34.034,29.293
33.976,29.371
33.919,29.487
33.863,29.65
33.809,29.869
33.755,30.153
33.705,30.507
33.657,30.933
33.611,31.432
33.568,32.002
33.527,32.639
33.487,33.336
33.448,34.084
33.407,34.871
33.363,35.686
33.317,36.515
33.268,37.345
33.217,38.163
33.164,38.956
33.11,39.711
33.055,40.419
33.001,41.068
32.948,41.654
32.898,42.17
32.851,42.614
32.809,42.985
32.771,43.282
32.737,43.507
32.704,43.665
32.674,43.761
32.646,43.799
32.62,43.787
32.596,43.729
32.572,43.635
32.549,43.509
32.526,43.36
32.502,43.193
32.476,43.011
32.449,42.819
32.421,42.62
32.394,42.418
32.365,42.216
32.336,42.016
32.308,41.818
32.279,41.625
32.25,41.435
32.22,41.248
32.192,41.064
32.165,40.881
32.141,40.699
32.118,40.515
32.096,40.33
32.074,40.143
32.053,39.956
32.033,39.768
32.013,39.579
31.994,39.388
31.977,39.195
31.961,39.002
31.948,38.808
31.937,38.617
31.932,38.428
31.933,38.244
31.941,38.064
31.959,37.889
31.987,37.719
32.028,37.555
32.084,37.398
32.157,37.25
32.247,37.109
32.355,36.975
32.483,36.847
32.634,36.727
32.811,36.612
33.023,36.503
33.276,36.401
33.58,36.306
33.94,36.22
34.359,36.141
34.833,36.071
35.355,36.008
35.915,35.952
36.499,35.902
37.093,35.858
37.681,35.818
38.25,35.781
38.785,35.745
39.276,35.71
39.713,35.674
40.088,35.636
40.396,35.595
40.636,35.55
40.809,35.498
40.917,35.439
40.964,35.372
40.957,35.298
40.902,35.216
40.806,35.127
40.677,35.032
40.522,34.931
40.35,34.826
40.166,34.718
39.976,34.607
39.785,34.494
39.594,34.381
39.408,34.268
39.229,34.157
39.057,34.047
38.895,33.94
38.741,33.834
38.596,33.729
38.458,33.625
38.327,33.522
38.204,33.419
38.086,33.316
37.972,33.212
37.862,33.109
37.754,33.004
37.648,32.9
37.542,32.796
37.437,32.694
37.332,32.593
37.228,32.495
37.128,32.399
37.031,32.307
36.938,32.219
36.848,32.135
36.76,32.052
36.673,31.971
36.586,31.889
36.498,31.808
36.409,31.726
36.319,31.645
36.228,31.565
36.138,31.488
36.051,31.412
35.966,31.34
35.886,31.27
35.808,31.203
35.735,31.137
35.667,31.073
35.604,31.01
35.547,30.947
35.496,30.884
35.45,30.821
35.411,30.758
35.379,30.695
35.352,30.631
35.33,30.565
35.313,30.498
35.302,30.43
35.296,30.364
35.293,30.299
35.293,30.239
35.295,30.182
35.297,30.131
35.297,30.085
35.293,30.043
35.287,30.006
35.278,29.973
35.266,29.944
35.25,29.92
35.231,29.899
35.208,29.88
35.182,29.862
35.15,29.843
35.115,29.821
35.075,29.796
35.032,29.769
34.987,29.739
34.94,29.709
34.892,29.677
34.844,29.645
34.795,29.613
34.747,29.581
34.699,29.55
34.652,29.519
34.606,29.489
34.561,29.458
34.518,29.427
34.475,29.396
34.431,29.368
34.386,29.342
34.341,29.319
34.295,29.298
34.248,29.281
34.2,29.268
34.151,29.262
34.1,29.267
34.045,29.285
33.986,29.322
33.923,29.384
33.857,29.481
33.79,29.62
33.723,29.813
33.658,30.067
33.594,30.391
33.532,30.789
33.473,31.266
33.414,31.821
33.356,32.45
33.298,33.151
33.241,33.916
33.185,34.737
33.13,35.603
33.077,36.504
33.025,37.424
32.975,38.35
32.926,39.267
32.88,40.161
32.836,41.021
32.794,41.834
32.755,42.588
32.717,43.276
32.68,43.89
32.643,44.426
32.608,44.881
32.575,45.258
32.543,45.557
32.513,45.783
32.484,45.94
32.457,46.035
32.43,46.072
32.403,46.057
32.375,45.999
32.345,45.903
32.315,45.777
32.284,45.627
32.254,45.459
32.223,45.277
32.192,45.085
32.162,44.887
32.133,44.686
32.104,44.481
32.072,44.276
32.033,44.07
31.989,43.863
31.941,43.654
31.891,43.443
31.842,43.229
31.796,43.011
31.756,42.787
31.722,42.557
31.696,42.322
31.68,42.081
31.676,41.836
31.683,41.588
31.703,41.338
31.736,41.086
31.782,40.834
31.843,40.584
31.919,40.337
32.011,40.093
32.118,39.854
32.24,39.62
32.379,39.394
32.536,39.175
32.712,38.966
32.912,38.767
33.141,38.578
33.405,38.401
33.71,38.236
34.059,38.085
34.453,37.946
34.889,37.819
35.361,37.703
35.856,37.596
36.364,37.497
36.871,37.405
37.363,37.319
37.829,37.239
38.256,37.163
38.636,37.092
38.962,37.025
39.229,36.961
39.435,36.898
39.579,36.835
39.664,36.769
39.696,36.7
39.679,36.627
39.619,36.549
39.523,36.465
39.397,36.375
39.25,36.277
39.088,36.171
38.918,36.057
38.745,35.934
38.574,35.805
38.408,35.67
38.251,35.529
38.103,35.385
37.966,35.237
37.839,35.086
37.721,34.933
37.611,34.779
37.507,34.626
37.406,34.474
37.309,34.324
37.215,34.176
37.121,34.03
37.026,33.885
36.93,33.742
36.833,33.6
36.736,33.46
36.636,33.32
36.536,33.183
36.434,33.047
36.333,32.913
36.233,32.78
36.135,32.649
36.038,32.52
35.944,32.394
35.852,32.269
35.763,32.148
35.677,32.032
35.593,31.918
35.514,31.808
35.441,31.7
35.373,31.594
35.31,31.489
35.251,31.385
35.195,31.284
35.143,31.185
35.094,31.089
35.048,30.995
35.006,30.904
34.97,30.815
34.939,30.729
34.913,30.647
34.89,30.568
34.871,30.495
34.854,30.428
34.841,30.366
34.83,30.309
34.822,30.257
34.817,30.208
34.814,30.159
34.813,30.11
34.812,30.06
34.81,30.008
34.808,29.955
34.805,29.901
34.802,29.847
34.798,29.792
34.793,29.736
34.785,29.68
34.775,29.623
34.762,29.565
34.746,29.507
34.73,29.451
34.713,29.399
34.694,29.351
34.673,29.31
34.649,29.274
34.622,29.242
34.593,29.214
34.561,29.188
34.525,29.167
34.485,29.147
34.441,29.131
34.395,29.116
34.347,29.103
34.298,29.091
34.25,29.078
34.202,29.064
34.155,29.051
34.11,29.036
34.065,29.02
34.021,29.004
33.979,28.987
33.936,28.969
33.892,28.952
33.847,28.936
33.8,28.921
33.752,28.907
33.703,28.894
33.654,28.881
33.605,28.869
33.557,28.859
33.512,28.849
33.47,28.843
33.43,28.841
33.392,28.843
33.356,28.851
33.32,28.865
33.285,28.888
33.25,28.92
33.215,28.967
33.178,29.035
33.139,29.134
33.1,29.273
33.06,29.461
33.02,29.706
32.982,30.015
32.945,30.391
32.91,30.835
32.876,31.348
32.845,31.923
32.816,32.557
32.787,33.24
32.758,33.966
32.728,34.721
32.699,35.494
32.669,36.27
32.64,37.038
32.611,37.786
32.583,38.504
32.556,39.185
32.529,39.819
32.503,40.401
32.477,40.923
32.451,41.384
32.425,41.78
32.399,42.111
32.372,42.378
32.346,42.584
32.321,42.731
32.299,42.824
32.282,42.865
32.27,42.86
32.264,42.814
32.267,42.731
32.279,42.617
32.3,42.479
32.333,42.32
32.377,42.147
32.435,41.964
32.507,41.773
32.593,41.579
32.695,41.382
32.812,41.186
32.945,40.989
33.095,40.793
33.262,40.598
33.448,40.402
33.653,40.208
33.88,40.015
34.13,39.825
34.407,39.636
34.713,39.447
35.048,39.258
35.411,39.068
35.796,38.877
36.194,38.688
36.596,38.501
36.992,38.316
37.373,38.134
37.729,37.954
38.051,37.779
38.333,37.609
38.568,37.446
38.755,37.29
38.891,37.141
38.977,37
39.016,36.866
39.011,36.74
38.967,36.622
38.891,36.513
38.789,36.414
38.668,36.324
38.533,36.244
38.388,36.172
38.237,36.108
38.082,36.05
37.929,36
37.779,35.956
37.635,35.918
37.499,35.885
37.372,35.855
37.254,35.828
37.146,35.801
37.045,35.777
36.952,35.753
36.865,35.73
36.784,35.704
36.708,35.675
36.636,35.64
36.568,35.599
36.501,35.552
36.434,35.498
36.367,35.437
36.298,35.37
36.226,35.296
36.15,35.215
36.071,35.128
35.99,35.036
35.907,34.938
35.822,34.836
35.735,34.73
35.649,34.619
35.563,34.506
35.48,34.389
35.4,34.27
35.325,34.149
35.257,34.027
35.197,33.906
35.143,33.787
35.097,33.669
35.059,33.553
35.027,33.44
35.002,33.327
34.984,33.216
34.971,33.106
34.963,32.998
34.96,32.892
34.96,32.787
34.962,32.684
34.965,32.582
34.967,32.48
34.97,32.38
34.971,32.28
34.97,32.182
34.967,32.086
34.963,31.993
34.955,31.904
34.943,31.817
34.927,31.733
34.907,31.65
34.884,31.57
34.859,31.492
34.834,31.416
34.808,31.342
34.783,31.27
34.759,31.198
34.734,31.127
34.71,31.055
34.686,30.985
34.663,30.915
34.64,30.847
34.617,30.78
34.594,30.715
34.569,30.653
34.543,30.59
34.514,30.529
34.481,30.47
34.446,30.412
34.41,30.356
34.372,30.302
34.334,30.249
34.295,30.196
34.254,30.145
34.213,30.094
34.17,30.045
34.126,29.995
34.082,29.945
34.038,29.896
33.994,29.847
33.95,29.799
33.906,29.753
33.86,29.709
33.813,29.669
33.767,29.631
33.72,29.596
33.673,29.562
33.627,29.53
33.583,29.5
33.542,29.471
33.504,29.443
33.467,29.416
33.43,29.39
33.393,29.364
33.357,29.336
33.321,29.308
33.285,29.279
33.249,29.25
33.213,29.223
33.178,29.196
33.143,29.171
33.111,29.146
33.081,29.124
33.055,29.103
33.031,29.084
33.007,29.068
32.983,29.055
32.958,29.045
32.931,29.039
32.902,29.036
32.868,29.039
32.83,29.047
32.789,29.061
32.746,29.083
32.699,29.113
32.652,29.152
32.604,29.204
32.558,29.27
32.515,29.355
32.476,29.467
32.442,29.615
32.412,29.807
32.385,30.05
32.364,30.351
32.346,30.711
32.333,31.131
32.325,31.608
32.322,32.138
32.327,32.714
32.339,33.328
32.362,33.971
32.397,34.632
32.445,35.3
32.507,35.965
32.585,36.615
32.679,37.241
32.791,37.834
32.924,38.387
33.076,38.894
33.251,39.349
33.451,39.749
33.683,40.091
33.955,40.376
34.274,40.605
34.645,40.779
35.067,40.901
35.536,40.973
36.045,41
36.581,40.988
37.131,40.94
37.683,40.863
38.221,40.761
38.731,40.635
39.201,40.491
39.62,40.332
39.981,40.162
40.28,39.984
40.513,39.801
40.681,39.615
40.787,39.429
40.833,39.243
40.824,39.058
40.768,38.875
40.672,38.693
40.545,38.512
40.394,38.331
40.227,38.151
40.048,37.972
39.864,37.794
39.679,37.618
39.496,37.445
39.319,37.276
39.149,37.11
38.987,36.946
38.835,36.785
38.692,36.626
38.558,36.469
38.434,36.314
38.318,36.162
38.21,36.013
38.108,35.869
38.01,35.731
37.914,35.601
37.82,35.479
37.725,35.368
37.631,35.266
37.537,35.174
37.443,35.09
37.348,35.013
37.254,34.942
37.159,34.878
37.063,34.82
36.966,34.767
36.867,34.718
36.766,34.675
36.665,34.634
36.564,34.597
36.463,34.561
36.364,34.526
36.268,34.491
36.174,34.455
36.082,34.418
35.993,34.38
35.908,34.341
35.828,34.301
35.754,34.26
35.688,34.219
35.631,34.177
35.583,34.134
35.545,34.09
35.514,34.043
35.489,33.993
35.47,33.937
35.456,33.878
35.445,33.815
35.437,33.749
35.427,33.68
35.416,33.609
35.403,33.538
35.387,33.467
35.368,33.397
35.347,33.331
35.324,33.267
35.299,33.205
35.274,33.144
35.248,33.081
35.223,33.018
35.198,32.953
35.172,32.886
35.147,32.817
35.122,32.746
35.096,32.673
35.072,32.598
35.048,32.521
35.024,32.444
34.999,32.367
34.973,32.292
34.946,32.218
34.917,32.146
34.885,32.077
34.85,32.011
34.811,31.949
34.768,31.89
34.723,31.835
34.675,31.784
34.623,31.735
34.568,31.69
34.51,31.646
34.45,31.605
34.389,31.565
34.327,31.527
34.265,31.491
34.204,31.457
34.143,31.425
34.084,31.395
34.027,31.366
33.972,31.339
33.92,31.314
33.871,31.29
33.823,31.267
33.776,31.246
33.731,31.227
33.687,31.211
33.645,31.2
33.604,31.193
33.563,31.191
33.523,31.192
33.483,31.194
33.442,31.198
33.401,31.203
33.36,31.207
33.319,31.21
33.279,31.212
33.24,31.21
33.201,31.205
33.163,31.194
33.125,31.178
33.087,31.158
33.048,31.135
33.009,31.11
32.97,31.085
32.933,31.059
32.897,31.033
32.861,31.006
32.825,30.979
32.79,30.951
32.757,30.923
32.725,30.895
32.693,30.867
32.662,30.839
32.632,30.812
32.604,30.785
32.578,30.758
32.554,30.73
32.531,30.702
32.509,30.674
32.487,30.647
32.465,30.623
32.444,30.602
32.424,30.585
32.405,30.574
32.387,30.566
32.372,30.562
32.36,30.562
32.353,30.565
32.353,30.571
32.361,30.583
32.378,30.6
32.405,30.624
32.445,30.654
32.5,30.691
32.569,30.737
32.655,30.795
32.759,30.873
32.882,30.979
33.027,31.122
33.196,31.311
33.392,31.551
33.62,31.844
33.887,32.19
34.198,32.586
34.555,33.026
34.961,33.502
35.411,34.006
35.897,34.528
36.409,35.056
36.934,35.581
37.458,36.094
37.967,36.586
38.45,37.047
38.894,37.472
39.289,37.854
39.629,38.189
39.909,38.473
40.125,38.705
40.278,38.887
40.37,39.019
40.405,39.105
40.39,39.146
40.332,39.148
40.237,39.115
40.112,39.05
39.966,38.96
39.803,38.85
39.632,38.723
39.455,38.583
39.28,38.435
39.109,38.28
38.945,38.122
38.792,37.961
38.649,37.799
38.517,37.637
38.397,37.477
38.286,37.318
38.183,37.163
38.084,37.011
37.988,36.863
37.893,36.718
37.799,36.577
37.707,36.441
37.615,36.309
37.523,36.182
37.432,36.06
37.34,35.943
37.245,35.829
37.149,35.717
37.051,35.607
36.954,35.499
36.857,35.393
36.762,35.289
36.668,35.186
36.577,35.086
36.488,34.988
36.402,34.893
36.317,34.801
36.235,34.713
36.154,34.629
36.076,34.548
36.002,34.472
35.931,34.4
35.864,34.333
35.804,34.272
35.752,34.217
35.707,34.169
35.668,34.127
35.634,34.092
35.606,34.062
35.582,34.038
35.563,34.018
35.546,34.001
35.532,33.985
35.519,33.97
35.506,33.953
35.492,33.935
35.478,33.915
35.462,33.891
35.446,33.865
35.43,33.837
35.414,33.808
35.398,33.779
35.382,33.751
35.367,33.723
35.35,33.696
35.332,33.671
35.312,33.649
35.291,33.63
35.27,33.616
35.246,33.604
35.219,33.592
35.189,33.577
35.156,33.559
35.12,33.535
35.082,33.503
35.043,33.465
35.005,33.42
34.967,33.37
34.929,33.316
34.893,33.258
34.855,33.197
34.818,33.133
34.78,33.067
34.742,32.998
34.703,32.929
34.664,32.861
34.625,32.796
34.586,32.733
34.545,32.673
34.501,32.617
34.456,32.565
34.409,32.515
34.36,32.469
34.309,32.426
34.256,32.386
34.2,32.349
34.143,32.312
34.087,32.274
34.031,32.234
33.977,32.193
33.924,32.152
33.874,32.111
33.826,32.071
33.779,32.034
33.735,32
33.691,31.967
33.65,31.936
33.608,31.908
33.567,31.881
33.526,31.855
33.486,31.83
33.447,31.804
33.408,31.778
33.369,31.75
33.329,31.724
33.289,31.699
33.249,31.677
33.206,31.655
33.163,31.635
33.118,31.616
33.074,31.597
33.03,31.577
32.987,31.557
32.945,31.536
32.906,31.513
32.869,31.49
32.834,31.466
32.801,31.442
32.771,31.419
32.743,31.397
32.717,31.375
32.693,31.355
32.67,31.335
32.648,31.316
32.629,31.299
32.61,31.284
32.593,31.272
32.575,31.262
32.559,31.255
32.543,31.251
32.53,31.25
32.517,31.251
32.505,31.254
32.495,31.26
32.487,31.266
32.481,31.272
32.479,31.276
32.482,31.279
32.491,31.278
32.51,31.274
32.538,31.268
32.58,31.261
32.636,31.252
32.709,31.244
32.8,31.237
32.91,31.234
33.042,31.236
33.198,31.245
33.382,31.263
33.603,31.288
33.866,31.323
34.18,31.367
34.549,31.423
34.974,31.491
35.449,31.577
35.967,31.687
36.514,31.827
37.079,32.006
37.646,32.229
38.2,32.499
38.727,32.816
39.215,33.177
39.653,33.577
40.035,34.009
40.354,34.464
40.606,34.934
40.792,35.408
40.913,35.877
40.972,36.333
40.974,36.767
40.925,37.171
40.833,37.54
40.706,37.867
40.554,38.149
40.385,38.384
40.205,38.573
40.02,38.718
39.836,38.82
39.655,38.884
39.479,38.912
39.31,38.909
39.15,38.879
39,38.828
38.86,38.758
38.729,38.675
38.606,38.581
38.492,38.478
38.385,38.369
38.283,38.256
38.184,38.141
38.086,38.026
37.988,37.912
37.889,37.799
37.789,37.687
37.688,37.576
37.587,37.466
37.485,37.358
37.383,37.253
37.279,37.149
37.174,37.045
37.065,36.939
36.955,36.829
36.844,36.715
36.734,36.598
36.626,36.478
36.521,36.355
36.421,36.23
36.326,36.104
36.238,35.979
36.157,35.856
36.084,35.737
36.018,35.625
35.96,35.52
35.909,35.422
35.865,35.331
35.827,35.247
35.795,35.169
35.768,35.099
35.744,35.035
35.724,34.98
35.705,34.932
35.687,34.89
35.67,34.853
35.653,34.821
35.634,34.793
35.616,34.769
35.596,34.749
35.576,34.733
35.555,34.719
35.533,34.707
35.512,34.696
35.49,34.685
35.47,34.675
35.45,34.666
35.432,34.658
35.414,34.652
35.396,34.648
35.377,34.645
35.358,34.642
35.337,34.638
35.316,34.634
35.293,34.628
35.268,34.62
35.241,34.61
35.21,34.597
35.175,34.577
35.137,34.551
35.095,34.52
35.05,34.483
35.001,34.44
34.951,34.394
34.898,34.344
34.843,34.292
34.787,34.236
34.732,34.179
34.678,34.121
34.627,34.062
34.579,34.003
34.534,33.944
34.493,33.885
34.455,33.827
34.418,33.77
34.38,33.715
34.343,33.661
34.304,33.608
34.263,33.558
34.219,33.51
34.173,33.464
34.122,33.421
34.068,33.379
34.01,33.339
33.95,33.3
33.889,33.261
33.827,33.224
33.768,33.187
33.71,33.151
33.653,33.114
33.601,33.076
33.552,33.037
33.508,32.997
33.468,32.955
33.43,32.913
33.395,32.871
33.362,32.829
33.33,32.787
33.299,32.744
33.268,32.703
33.235,32.662
33.2,32.623
33.164,32.586
33.128,32.551
33.09,32.519
33.053,32.491
33.014,32.465
32.975,32.443
32.935,32.424
32.896,32.405
32.857,32.386
32.819,32.367
32.781,32.346
32.745,32.324
32.71,32.3
32.679,32.274
32.65,32.246
32.625,32.216
32.602,32.186
32.582,32.156
32.563,32.127
32.547,32.099
32.533,32.074
32.521,32.051
32.51,32.029
32.501,32.009
32.492,31.99
32.483,31.972
32.476,31.954
32.47,31.937
32.468,31.92
32.469,31.905
32.476,31.891
32.489,31.878
32.511,31.866
32.543,31.856
32.585,31.846
32.641,31.835
32.711,31.824
32.797,31.813
32.9,31.805
33.019,31.799
33.156,31.798
33.311,31.803
33.487,31.814
33.686,31.833
33.914,31.864
34.176,31.907
34.479,31.966
34.825,32.045
35.215,32.15
35.642,32.288
36.101,32.47
36.581,32.702
37.069,32.989
37.552,33.332
38.017,33.729
38.454,34.174
38.853,34.66
39.204,35.179
39.502,35.721
39.742,36.275
39.923,36.832
40.046,37.382
40.111,37.914
40.124,38.419
40.089,38.892
40.015,39.326
39.908,39.718
39.776,40.064
39.625,40.364
39.463,40.616
39.295,40.822
39.125,40.983
38.958,41.101
38.794,41.18
38.636,41.221
38.485,41.229
38.344,41.207
38.212,41.16
38.091,41.092
37.979,41.005
37.876,40.903
37.78,40.789
37.688,40.665
37.599,40.534
37.513,40.399
37.427,40.26
37.341,40.119
37.255,39.974
37.168,39.828
37.079,39.682
36.989,39.535
36.898,39.388
36.805,39.243
36.712,39.099
36.618,38.956
36.524,38.813
36.431,38.673
36.339,38.534
36.25,38.397
36.166,38.264
36.085,38.133
36.01,38.006
35.938,37.881
35.872,37.759
35.811,37.639
35.756,37.523
35.708,37.409
35.667,37.297
35.633,37.187
35.604,37.079
35.58,36.972
35.559,36.869
35.541,36.77
35.525,36.675
35.512,36.585
35.5,36.501
35.489,36.423
35.478,36.351
35.469,36.287
35.461,36.229
35.454,36.18
35.447,36.139
35.441,36.104
35.435,36.075
35.43,36.051
35.424,36.033
35.418,36.017
35.411,36.002
35.402,35.988
35.39,35.974
35.372,35.958
35.35,35.939
35.322,35.919
35.29,35.896
35.256,35.87
35.218,35.842
35.179,35.811
35.14,35.779
35.101,35.743
35.062,35.704
35.022,35.661
34.981,35.615
34.939,35.565
34.897,35.511
34.853,35.455
34.809,35.395
34.765,35.332
34.72,35.263
34.676,35.19
34.632,35.113
34.589,35.033
34.548,34.953
34.507,34.873
34.466,34.794
34.425,34.717
34.383,34.64
34.34,34.566
34.296,34.492
34.251,34.419
34.204,34.346
34.154,34.274
34.101,34.204
34.046,34.135
33.99,34.068
33.931,34.005
33.871,33.944
33.811,33.887
33.753,33.833
33.697,33.781
33.645,33.732
33.597,33.684
33.554,33.637
33.514,33.589
33.477,33.542
33.442,33.494
33.41,33.447
33.378,33.401
33.348,33.354
33.318,33.306
33.288,33.257
33.257,33.208
33.225,33.158
33.191,33.109
33.156,33.06
33.119,33.012
33.083,32.965
33.047,32.917
33.014,32.869
32.982,32.822
32.951,32.777
32.92,32.733
32.889,32.692
32.859,32.653
32.83,32.617
32.801,32.582
32.774,32.55
32.748,32.521
32.722,32.493
32.695,32.467
32.669,32.443
32.642,32.42
32.616,32.398
32.59,32.375
32.565,32.351
32.541,32.326
32.52,32.298
32.503,32.269
32.49,32.24
32.484,32.212
32.488,32.187
32.505,32.163
32.536,32.142
32.582,32.122
32.645,32.102
32.725,32.081
32.822,32.06
32.937,32.038
33.07,32.018
33.22,31.997
33.385,31.979
33.564,31.962
33.755,31.946
33.956,31.934
34.167,31.925
34.387,31.922
34.616,31.925
34.854,31.936
35.101,31.956
35.357,31.985
35.623,32.024
35.898,32.073
36.18,32.136
36.465,32.216
36.75,32.322
37.03,32.461
37.3,32.643
37.554,32.875
37.788,33.16
37.998,33.501
38.178,33.897
38.326,34.344
38.44,34.835
38.519,35.362
38.564,35.914
38.575,36.481
38.553,37.051
38.503,37.614
38.428,38.161
38.334,38.683
38.224,39.17
38.104,39.617
37.977,40.018
37.845,40.37
37.713,40.671
37.582,40.92
37.454,41.121
37.331,41.274
37.214,41.382
37.106,41.449
37.004,41.478
36.908,41.474
36.818,41.44
36.732,41.381
36.651,41.303
36.573,41.209
36.498,41.102
36.424,40.986
36.351,40.863
36.279,40.735
36.205,40.604
36.132,40.47
36.058,40.335
35.983,40.199
35.91,40.062
35.838,39.924
35.768,39.785
35.702,39.645
35.641,39.504
35.584,39.362
35.532,39.218
35.483,39.072
35.437,38.922
35.395,38.769
35.357,38.613
35.322,38.455
35.291,38.286
35.262,38.102
35.237,37.905
35.213,37.7
35.193,37.492
35.175,37.289
35.16,37.095
35.148,36.918
35.138,36.76
35.132,36.624
35.128,36.511
35.128,36.421
35.129,36.352
35.132,36.303
35.134,36.269
35.136,36.248
35.138,36.236
35.138,36.231
35.137,36.228
35.134,36.227
35.13,36.225
35.124,36.221
35.114,36.214
35.102,36.206
35.087,36.195
35.07,36.181
35.05,36.164
35.028,36.144
35.003,36.121
34.978,36.094
34.952,36.064
34.925,36.032
34.898,35.996
34.871,35.958
34.843,35.917
34.816,35.875
34.788,35.831
34.759,35.788
34.729,35.744
34.697,35.7
34.662,35.656
34.625,35.61
34.585,35.562
34.543,35.51
34.498,35.454
34.452,35.394
34.403,35.33
34.353,35.261
34.302,35.186
34.252,35.106
34.201,35.023
34.15,34.938
34.098,34.853
34.048,34.772
34,34.694
33.954,34.62
33.911,34.55
33.87,34.484
33.832,34.421
33.797,34.363
33.765,34.308
33.735,34.257
33.707,34.209
33.68,34.162
33.653,34.116
33.624,34.07
33.595,34.025
33.565,33.979
33.534,33.933
33.503,33.887
33.47,33.842
33.435,33.795
33.399,33.747
33.363,33.698
33.327,33.648
33.29,33.599
33.253,33.553
33.217,33.509
33.182,33.47
33.149,33.434
33.118,33.404
33.087,33.376
33.057,33.35
33.028,33.326
33.001,33.302
32.973,33.278
32.946,33.252
32.917,33.225
32.888,33.194
32.856,33.159
32.824,33.12
32.793,33.078
32.765,33.034
32.742,32.989
32.726,32.943
32.719,32.897
32.724,32.85
32.743,32.802
32.776,32.755
32.825,32.709
32.889,32.664
32.971,32.623
33.072,32.584
33.192,32.548
33.331,32.514
33.488,32.481
33.664,32.45
33.859,32.421
34.077,32.393
34.321,32.367
34.596,32.342
34.908,32.318
35.259,32.296
35.649,32.276
36.074,32.257
36.528,32.239
37.002,32.22
37.484,32.201
37.961,32.18
38.419,32.157
38.847,32.132
39.233,32.105
39.57,32.076
39.852,32.045
40.077,32.012
40.243,31.979
40.352,31.946
40.405,31.914
40.407,31.883
40.362,31.855
40.279,31.829
40.165,31.807
40.028,31.789
39.874,31.778
39.709,31.775
39.539,31.782
39.37,31.804
39.204,31.842
39.043,31.903
38.889,31.994
38.742,32.123
38.601,32.298
38.468,32.526
38.342,32.808
38.225,33.145
38.116,33.534
38.014,33.97
37.917,34.445
37.824,34.949
37.732,35.472
37.64,36.002
37.548,36.528
37.455,37.041
37.362,37.529
37.267,37.986
37.171,38.403
37.074,38.777
36.974,39.103
36.874,39.379
36.773,39.605
36.673,39.78
36.575,39.907
36.481,39.988
36.389,40.028
36.303,40.031
36.221,40.004
36.144,39.949
36.071,39.874
36.001,39.781
35.936,39.676
35.874,39.561
35.818,39.44
35.767,39.313
35.721,39.185
35.681,39.054
35.645,38.922
35.615,38.791
35.588,38.662
35.564,38.535
35.542,38.412
35.522,38.292
35.502,38.176
35.483,38.062
35.465,37.951
35.448,37.841
35.432,37.731
35.417,37.621
35.404,37.507
35.39,37.389
35.377,37.267
35.365,37.144
35.354,37.02
35.343,36.898
35.332,36.779
35.321,36.662
35.307,36.549
35.291,36.44
35.272,36.337
35.251,36.24
35.228,36.15
35.201,36.066
35.17,35.99
35.135,35.92
35.098,35.857
35.058,35.801
35.015,35.749
34.969,35.702
34.921,35.658
34.872,35.617
34.822,35.577
34.773,35.54
34.724,35.506
34.675,35.476
34.627,35.452
34.579,35.432
34.531,35.416
34.484,35.401
34.438,35.388
34.392,35.376
34.345,35.364
34.298,35.353
34.251,35.341
34.202,35.329
34.153,35.315
34.102,35.3
34.049,35.282
33.995,35.262
33.94,35.241
33.885,35.218
33.829,35.192
33.773,35.162
33.716,35.129
33.659,35.091
33.604,35.041
33.551,34.975
33.501,34.896
33.455,34.804
33.411,34.706
33.369,34.605
33.329,34.506
33.291,34.413
33.254,34.33
33.219,34.259
33.185,34.199
33.152,34.151
33.118,34.112
33.085,34.082
33.05,34.059
33.015,34.041
32.978,34.027
32.941,34.014
32.905,34.002
32.869,33.988
32.834,33.971
32.799,33.949
32.765,33.921
32.733,33.886
32.702,33.844
32.674,33.797
32.646,33.744
32.621,33.688
32.596,33.629
32.571,33.568
32.546,33.507
32.522,33.448
32.5,33.393
32.483,33.343
32.473,33.297
32.472,33.256
32.482,33.217
32.505,33.181
32.544,33.146
32.598,33.114
32.67,33.083
32.761,33.054
32.872,33.026
33.005,32.999
33.16,32.973
33.337,32.946
33.537,32.92
33.762,32.893
34.012,32.866
34.293,32.839
34.608,32.813
34.962,32.789
35.355,32.768
35.783,32.749
36.24,32.731
36.717,32.713
37.202,32.695
37.684,32.674
38.149,32.652
38.585,32.627
38.981,32.601
39.331,32.572
39.626,32.543
39.864,32.512
40.042,32.481
40.163,32.449
40.228,32.419
40.243,32.392
40.211,32.367
40.137,32.345
40.027,32.326
39.888,32.309
39.726,32.294
39.55,32.279
39.367,32.265
39.183,32.251
39.004,32.237
38.832,32.224
38.668,32.211
38.514,32.199
38.371,32.188
38.238,32.177
38.115,32.165
38.001,32.152
37.894,32.136
37.795,32.117
37.703,32.097
37.616,32.074
37.533,32.05
37.453,32.025
37.373,31.997
37.292,31.968
37.209,31.938
37.124,31.911
37.037,31.886
36.95,31.864
36.861,31.846
36.77,31.832
36.679,31.823
36.587,31.82
36.494,31.827
36.402,31.846
36.31,31.877
36.219,31.923
36.13,31.985
36.045,32.065
35.962,32.165
35.881,32.289
35.802,32.445
35.727,32.639
35.656,32.878
35.59,33.165
35.531,33.499
35.48,33.879
35.436,34.297
35.399,34.746
35.369,35.218
35.346,35.703
35.33,36.191
35.321,36.672
35.316,37.136
35.315,37.574
35.315,37.978
35.317,38.342
35.318,38.663
35.318,38.938
35.315,39.165
35.309,39.344
35.3,39.477
35.289,39.568
35.275,39.621
35.26,39.638
35.241,39.624
35.22,39.583
35.197,39.519
35.17,39.435
35.142,39.337
35.112,39.229
35.082,39.112
35.051,38.989
35.02,38.861
34.989,38.733
34.958,38.605
34.928,38.48
34.898,38.357
34.867,38.237
34.836,38.12
34.804,38.005
34.771,37.892
34.737,37.78
34.701,37.67
34.662,37.56
34.619,37.45
34.574,37.341
34.525,37.231
34.474,37.122
34.422,37.014
34.369,36.908
34.317,36.806
34.265,36.706
34.215,36.609
34.167,36.514
34.122,36.421
34.079,36.33
34.04,36.24
34.003,36.152
33.967,36.068
33.931,35.987
33.894,35.911
33.853,35.842
33.81,35.78
33.762,35.725
33.711,35.678
33.656,35.637
33.598,35.601
33.537,35.57
33.475,35.543
33.412,35.52
33.348,35.5
33.285,35.483
33.224,35.469
33.164,35.456
33.108,35.445
33.055,35.434
33.007,35.423
32.965,35.412
32.928,35.401
32.894,35.389
32.863,35.376
32.836,35.364
32.811,35.351
32.789,35.336
32.769,35.319
32.749,35.3
32.729,35.278
32.709,35.254
32.687,35.228
32.665,35.2
32.642,35.171
32.619,35.138
32.596,35.103
32.572,35.065
32.548,35.023
32.524,34.978
32.501,34.929
32.481,34.878
32.466,34.825
32.459,34.772
32.46,34.719
32.472,34.667
32.496,34.615
32.531,34.563
32.58,34.511
32.644,34.46
32.724,34.408
32.822,34.356
32.936,34.304
33.067,34.252
33.216,34.201
33.382,34.151
33.567,34.103
33.772,34.055
33.998,34.007
34.249,33.958
34.529,33.908
34.841,33.857
35.186,33.806
35.564,33.754
35.971,33.703
36.398,33.652
36.837,33.602
37.277,33.553
37.709,33.505
38.121,33.462
38.505,33.424
38.85,33.392
39.15,33.367
39.399,33.346
39.594,33.329
39.732,33.313
39.814,33.296
39.843,33.279
39.825,33.26
39.765,33.237
39.671,33.212
39.548,33.184
39.405,33.151
39.247,33.113
39.079,33.071
38.907,33.024
38.733,32.974
38.563,32.924
38.398,32.876
38.241,32.832
38.093,32.793
37.955,32.757
37.829,32.726
37.714,32.698
37.609,32.674
37.514,32.652
37.425,32.635
37.343,32.619
37.265,32.605
37.19,32.591
37.117,32.577
37.044,32.562
36.971,32.548
36.897,32.534
36.821,32.521
36.742,32.508
36.657,32.494
36.562,32.479
36.459,32.461
36.349,32.442
36.236,32.421
36.124,32.399
36.017,32.378
35.919,32.357
35.833,32.337
35.759,32.319
35.699,32.305
35.652,32.292
35.619,32.28
35.598,32.27
35.588,32.259
35.585,32.247
35.589,32.235
35.598,32.221
35.609,32.207
35.622,32.193
35.635,32.178
35.646,32.164
35.655,32.151
35.661,32.141
35.663,32.134
35.663,32.132
35.661,32.135
35.658,32.145
35.654,32.163
35.648,32.19
35.641,32.228
35.633,32.276
35.625,32.335
35.617,32.404
35.607,32.484
35.597,32.575
35.585,32.68
35.57,32.801
35.553,32.942
35.534,33.106
35.512,33.299
35.486,33.525
35.457,33.784
35.423,34.075
35.387,34.393
35.349,34.733
35.31,35.088
35.269,35.449
35.226,35.809
35.182,36.158
35.137,36.487
35.093,36.79
35.048,37.06
35.002,37.293
34.956,37.487
34.907,37.64
34.855,37.753
34.802,37.827
34.747,37.866
34.69,37.873
34.632,37.85
34.572,37.802
34.51,37.734
34.447,37.649
34.384,37.552
34.322,37.447
34.261,37.336
34.203,37.224
34.148,37.111
34.099,37.001
34.055,36.895
34.016,36.793
33.98,36.696
33.949,36.604
33.92,36.516
33.893,36.435
33.868,36.358
33.844,36.287
33.819,36.219
33.793,36.152
33.764,36.087
33.732,36.022
33.698,35.956
33.66,35.889
33.62,35.822
33.577,35.754
33.53,35.686
33.481,35.617
33.43,35.547
33.378,35.478
33.325,35.41
33.273,35.342
33.223,35.277
33.177,35.217
33.134,35.161
33.094,35.11
33.057,35.066
33.022,35.028
32.988,34.997
32.956,34.972
32.926,34.952
32.898,34.936
32.873,34.922
32.849,34.91
32.827,34.898
32.808,34.887
32.791,34.876
32.78,34.866
32.775,34.855
32.778,34.844
32.792,34.832
32.817,34.82
32.854,34.808
32.902,34.797
32.965,34.789
33.044,34.782
33.142,34.776
33.26,34.772
33.398,34.769
33.556,34.766
33.733,34.764
33.931,34.762
34.15,34.759
34.391,34.753
34.656,34.744
34.949,34.731
35.272,34.712
35.626,34.689
36.01,34.662
36.417,34.634
36.839,34.603
37.266,34.571
37.688,34.539
38.093,34.505
38.469,34.47
38.809,34.436
39.103,34.401
39.348,34.365
39.54,34.329
39.677,34.292
39.761,34.252
39.795,34.212
39.782,34.171
39.727,34.131
39.638,34.093
39.52,34.056
39.38,34.021
39.227,33.986
39.065,33.954
38.9,33.924
38.738,33.897
38.581,33.873
38.432,33.852
38.29,33.831
38.159,33.809
38.038,33.785
37.927,33.76
37.825,33.734
37.732,33.706
37.647,33.677
37.567,33.647
37.492,33.615
37.418,33.582
37.345,33.547
37.27,33.511
37.192,33.474
37.112,33.434
37.029,33.394
36.942,33.353
36.851,33.314
36.756,33.276
36.658,33.241
36.558,33.21
36.457,33.181
36.357,33.156
36.258,33.135
36.161,33.117
36.065,33.102
35.974,33.087
35.888,33.072
35.809,33.056
35.737,33.04
35.672,33.023
35.614,33.006
35.563,32.989
35.519,32.971
35.482,32.953
35.451,32.935
35.426,32.915
35.406,32.895
35.389,32.873
35.376,32.849
35.367,32.822
35.36,32.793
35.358,32.76
35.357,32.724
35.358,32.686
35.361,32.646
35.366,32.608
35.372,32.571
35.378,32.538
35.381,32.51
35.382,32.486
35.38,32.468
35.374,32.456
35.366,32.447
35.354,32.441
35.338,32.437
35.318,32.434
35.293,32.43
35.265,32.426
35.235,32.422
35.204,32.417
35.171,32.411
35.139,32.403
35.105,32.395
35.072,32.386
35.038,32.377
35.006,32.369
34.974,32.363
34.941,32.36
34.905,32.362
34.866,32.37
34.822,32.384
34.776,32.406
34.726,32.436
34.673,32.476
34.617,32.527
34.561,32.591
34.505,32.67
34.451,32.765
34.399,32.875
34.351,33.003
34.306,33.152
34.262,33.326
34.222,33.53
34.183,33.769
34.147,34.043
34.113,34.352
34.079,34.693
34.046,35.06
34.012,35.446
33.979,35.844
33.943,36.242
33.905,36.631
33.865,37.001
33.823,37.343
33.779,37.652
33.735,37.921
33.691,38.147
33.646,38.328
33.601,38.464
33.556,38.556
33.51,38.606
33.465,38.619
33.421,38.602
33.379,38.559
33.339,38.494
33.3,38.411
33.262,38.315
33.225,38.211
33.189,38.101
33.153,37.99
33.119,37.879
33.085,37.772
33.053,37.667
33.023,37.567
32.994,37.471
32.964,37.379
32.935,37.291
32.905,37.206
32.875,37.125
32.845,37.045
32.816,36.966
32.786,36.887
32.757,36.808
32.729,36.729
32.702,36.649
32.677,36.567
32.656,36.483
32.64,36.397
32.634,36.309
32.639,36.221
32.661,36.135
32.699,36.05
32.757,35.968
32.834,35.889
32.932,35.811
33.05,35.737
33.19,35.666
33.351,35.599
33.533,35.538
33.735,35.484
33.958,35.436
34.204,35.395
34.478,35.359
34.782,35.329
35.12,35.305
35.494,35.286
35.9,35.272
36.334,35.262
36.788,35.254
37.249,35.247
37.706,35.241
38.148,35.235
38.562,35.229
38.939,35.224
39.268,35.218
39.545,35.212
39.765,35.204
39.927,35.197
40.031,35.189
40.082,35.181
40.084,35.173
40.042,35.163
39.964,35.151
39.854,35.136
39.72,35.119
39.569,35.1
39.407,35.08
39.239,35.059
39.071,35.037
38.907,35.015
38.748,34.991
38.595,34.966
38.451,34.94
38.314,34.913
38.187,34.886
38.068,34.858
37.956,34.831
37.85,34.806
37.747,34.783
37.648,34.76
37.552,34.733
37.458,34.703
37.366,34.669
37.273,34.632
37.18,34.593
37.084,34.554
36.985,34.514
36.884,34.475
36.78,34.437
36.674,34.398
36.567,34.361
36.458,34.324
36.35,34.288
36.242,34.254
36.138,34.219
36.037,34.184
35.94,34.148
35.847,34.111
35.761,34.074
35.681,34.038
35.609,34.002
35.544,33.968
35.486,33.935
35.434,33.904
35.389,33.875
35.35,33.848
35.317,33.822
35.289,33.796
35.267,33.771
35.25,33.749
35.236,33.728
35.224,33.708
35.215,33.688
35.208,33.667
35.201,33.646
35.195,33.622
35.188,33.598
35.18,33.574
35.172,33.551
35.163,33.527
35.155,33.506
35.147,33.486
35.14,33.469
35.133,33.455
35.127,33.445
35.12,33.439
35.113,33.437
35.106,33.437
35.096,33.441
35.085,33.447
35.071,33.455
35.055,33.464
35.036,33.474
35.016,33.484
34.994,33.491
34.972,33.495
34.949,33.495
34.924,33.491
34.896,33.484
34.862,33.472
34.824,33.457
34.781,33.441
34.733,33.422
34.683,33.401
34.629,33.378
34.574,33.353
34.519,33.328
34.464,33.304
34.41,33.28
34.357,33.257
34.306,33.233
34.257,33.209
34.211,33.184
34.167,33.159
34.126,33.134
34.085,33.111
34.047,33.09
34.009,33.072
33.97,33.058
33.931,33.05
33.891,33.048
33.851,33.056
33.81,33.075
33.767,33.107
33.723,33.155
33.677,33.22
33.629,33.303
33.58,33.406
33.531,33.535
33.482,33.696
33.435,33.898
33.39,34.146
33.347,34.445
33.305,34.796
33.265,35.193
33.226,35.632
33.188,36.104
33.152,36.596
33.116,37.097
33.081,37.596
33.046,38.082
33.011,38.544
32.974,38.973
32.937,39.364
32.9,39.711
32.863,40.008
32.827,40.254
32.791,40.447
32.756,40.589
32.723,40.682
32.691,40.729
32.661,40.736
32.633,40.705
32.608,40.643
32.588,40.553
32.571,40.44
32.559,40.308
32.552,40.161
32.549,40.004
32.552,39.839
32.562,39.671
32.581,39.502
32.61,39.333
32.651,39.166
32.706,39.001
32.776,38.841
32.861,38.683
32.965,38.531
33.088,38.383
33.23,38.241
33.394,38.105
33.581,37.975
33.793,37.85
34.032,37.73
34.303,37.612
34.609,37.498
34.953,37.386
35.335,37.277
35.752,37.171
36.201,37.066
36.671,36.964
37.154,36.867
37.636,36.775
38.105,36.688
38.547,36.605
38.951,36.527
39.306,36.452
39.606,36.379
39.846,36.307
40.026,36.236
40.146,36.166
40.209,36.096
40.219,36.027
40.183,35.961
40.107,35.898
39.996,35.84
39.858,35.787
39.699,35.74
39.525,35.699
39.343,35.663
39.158,35.631
38.974,35.604
38.793,35.58
38.619,35.559
38.451,35.54
38.29,35.523
38.137,35.507
37.992,35.493
37.857,35.481
37.731,35.469
37.612,35.459
37.501,35.448
37.396,35.438
37.296,35.428
37.201,35.418
37.108,35.409
37.018,35.399
36.929,35.387
36.84,35.374
36.751,35.357
36.659,35.337
36.566,35.315
36.471,35.289
36.374,35.262
36.275,35.235
36.175,35.208
36.076,35.179
35.977,35.147
35.882,35.113
35.789,35.076
35.701,35.037
35.618,34.996
35.54,34.954
35.468,34.91
35.402,34.865
35.344,34.819
35.292,34.772
35.248,34.725
35.21,34.679
35.179,34.633
35.154,34.588
35.134,34.543
35.118,34.497
35.104,34.451
35.092,34.406
35.081,34.362
35.073,34.319
35.065,34.277
35.058,34.235
35.05,34.193
35.041,34.149
35.033,34.105
35.025,34.062
35.017,34.018
35.009,33.976
34.999,33.936
34.989,33.896
34.978,33.856
34.965,33.817
34.951,33.778
34.935,33.74
34.918,33.704
34.899,33.668
34.88,33.634
34.862,33.602
34.844,33.57
34.826,33.54
34.806,33.51
34.784,33.482
34.76,33.454
34.733,33.428
34.703,33.4
34.67,33.372
34.633,33.341
34.593,33.308
34.55,33.275
34.505,33.244
34.457,33.214
34.407,33.188
34.356,33.164
34.305,33.143
34.255,33.123
34.205,33.106
34.157,33.09
34.11,33.074
34.065,33.059
34.021,33.044
33.979,33.028
33.937,33.012
33.896,32.994
33.854,32.975
33.811,32.956
33.767,32.935
33.723,32.913
33.68,32.892
33.637,32.871
33.593,32.85
33.549,32.831
33.503,32.813
33.455,32.796
33.408,32.781
33.36,32.765
33.312,32.749
33.266,32.733
33.22,32.715
33.175,32.695
33.131,32.673
33.089,32.65
33.049,32.627
33.012,32.604
32.978,32.583
32.947,32.565
32.92,32.55
32.896,32.538
32.873,32.532
32.85,32.532
32.827,32.54
32.805,32.556
32.782,32.583
32.76,32.624
32.738,32.679
32.717,32.751
32.696,32.841
32.676,32.95
32.656,33.08
32.637,33.233
32.619,33.416
32.603,33.634
32.589,33.892
32.579,34.194
32.574,34.538
32.573,34.923
32.579,35.341
32.594,35.786
32.621,36.247
32.661,36.714
32.716,37.177
32.788,37.627
32.877,38.053
32.982,38.449
33.105,38.809
33.245,39.125
33.404,39.396
33.582,39.62
33.781,39.796
34.002,39.927
34.247,40.014
34.52,40.061
34.822,40.072
35.155,40.051
35.519,40.004
35.91,39.934
36.321,39.845
36.745,39.743
37.17,39.631
37.587,39.511
37.985,39.387
38.352,39.259
38.681,39.129
38.965,39
39.198,38.872
39.378,38.746
39.506,38.623
39.582,38.502
39.61,38.386
39.594,38.272
39.54,38.163
39.454,38.057
39.342,37.953
39.209,37.85
39.062,37.747
38.906,37.645
38.747,37.543
38.588,37.442
38.431,37.342
38.278,37.243
38.131,37.145
37.99,37.048
37.858,36.951
37.734,36.857
37.62,36.765
37.513,36.677
37.412,36.592
37.317,36.511
37.225,36.435
37.136,36.365
37.049,36.3
36.963,36.241
36.878,36.19
36.792,36.144
36.706,36.104
36.619,36.069
36.532,36.037
36.444,36.009
36.357,35.984
36.269,35.965
36.18,35.95
36.092,35.938
36.006,35.931
35.922,35.925
35.842,35.922
35.765,35.922
35.693,35.922
35.624,35.924
35.559,35.925
35.501,35.924
35.448,35.921
35.401,35.916
35.36,35.908
35.325,35.897
35.296,35.882
35.273,35.863
35.256,35.838
35.243,35.808
35.234,35.773
35.228,35.735
35.225,35.695
35.223,35.653
35.224,35.611
35.227,35.571
35.231,35.533
35.235,35.496
35.239,35.462
35.244,35.43
35.249,35.399
35.255,35.37
35.259,35.34
35.261,35.308
35.261,35.273
35.259,35.234
35.253,35.192
35.245,35.144
35.235,35.093
35.222,35.039
35.207,34.981
35.187,34.922
35.162,34.861
35.134,34.8
35.101,34.74
35.065,34.683
35.025,34.627
34.983,34.574
34.938,34.521
34.892,34.47
34.846,34.419
34.8,34.369
34.755,34.319
34.711,34.269
34.669,34.219
34.63,34.169
34.594,34.122
34.561,34.077
34.529,34.035
34.499,33.995
34.468,33.958
34.437,33.923
34.404,33.887
34.371,33.851
34.338,33.816
34.302,33.782
34.264,33.748
34.223,33.716
34.182,33.686
34.138,33.658
34.094,33.631
34.05,33.605
34.006,33.579
33.964,33.553
33.923,33.525
33.883,33.495
33.843,33.463
33.802,33.43
33.761,33.395
33.721,33.361
33.681,33.326
33.643,33.293
33.607,33.26
33.571,33.227
33.535,33.195
33.498,33.163
33.461,33.131
33.423,33.099
33.386,33.068
33.351,33.038
33.317,33.01
33.285,32.982
33.254,32.957
33.223,32.932
33.19,32.91
33.152,32.89
33.111,32.873
33.068,32.858
33.025,32.845
32.983,32.832
32.944,32.819
32.907,32.806
32.875,32.792
32.847,32.778
32.826,32.763
32.813,32.745
32.81,32.725
32.817,32.696
32.835,32.654
32.865,32.598
32.907,32.532
32.964,32.462
33.034,32.393
33.119,32.328
33.219,32.273
33.334,32.23
33.465,32.203
33.61,32.192
33.77,32.199
33.944,32.226
34.134,32.27
34.34,32.33
34.566,32.407
34.814,32.498
35.09,32.603
35.396,32.722
35.734,32.853
36.102,32.997
36.496,33.155
36.908,33.329
37.33,33.523
37.753,33.744
38.165,33.996
38.555,34.283
38.916,34.607
39.238,34.967
39.514,35.356
39.74,35.768
39.914,36.194
40.035,36.627
40.107,37.055
40.132,37.471
40.113,37.865
40.055,38.228
39.962,38.555
39.843,38.84
39.704,39.081
39.55,39.278
39.39,39.43
39.227,39.537
39.067,39.602
38.913,39.628
38.767,39.62
38.631,39.585
38.504,39.529
38.386,39.457
38.277,39.375
38.174,39.285
38.076,39.19
37.983,39.09
37.894,38.986
37.808,38.88
37.723,38.77
37.638,38.658
37.552,38.542
37.465,38.424
37.375,38.303
37.283,38.182
37.187,38.061
37.09,37.942
36.99,37.826
36.89,37.713
36.791,37.603
36.694,37.497
36.6,37.394
36.511,37.292
36.425,37.192
36.344,37.092
36.269,36.991
36.201,36.892
36.139,36.794
36.084,36.698
36.036,36.604
35.993,36.514
35.957,36.427
35.925,36.345
35.898,36.268
35.875,36.196
35.856,36.13
35.841,36.068
35.828,36.011
35.818,35.959
35.81,35.911
35.804,35.867
35.8,35.827
35.798,35.791
35.798,35.759
35.8,35.731
35.804,35.706
35.808,35.683
35.811,35.663
35.812,35.643
35.812,35.622
35.808,35.599
35.799,35.575
35.785,35.55
35.767,35.527
35.744,35.508
35.718,35.492
35.69,35.481
35.66,35.474
35.63,35.471
35.599,35.47
35.569,35.469
35.54,35.468
35.51,35.465
35.482,35.461
35.453,35.454
35.425,35.447
35.395,35.438
35.363,35.428
35.329,35.416
35.294,35.402
35.256,35.384
35.216,35.362
35.173,35.336
35.128,35.305
35.081,35.27
35.032,35.23
34.983,35.186
34.933,35.138
34.883,35.087
34.834,35.035
34.786,34.982
34.738,34.93
34.691,34.88
34.645,34.831
34.6,34.784
34.557,34.738
34.517,34.695
34.478,34.654
34.44,34.615
34.403,34.578
34.366,34.54
34.327,34.503
34.288,34.465
34.249,34.427
34.21,34.39
34.172,34.351
34.134,34.312
34.096,34.271
34.059,34.228
34.021,34.183
33.983,34.135
33.944,34.087
33.904,34.039
33.865,33.991
33.825,33.946
33.784,33.903
33.744,33.864
33.703,33.826
33.662,33.79
33.621,33.755
33.582,33.723
33.547,33.694
33.518,33.668
33.495,33.644
33.475,33.621
33.459,33.6
33.446,33.579
33.434,33.558
33.424,33.538
33.417,33.519
33.414,33.499
33.418,33.48
33.43,33.461
33.453,33.44
33.488,33.417
33.537,33.392
33.602,33.366
33.684,33.339
33.785,33.311
33.907,33.282
34.05,33.252
34.217,33.22
34.409,33.19
34.633,33.16
34.894,33.132
35.199,33.106
35.553,33.082
35.956,33.058
36.407,33.034
36.897,33.01
37.419,32.987
37.959,32.964
38.505,32.942
39.04,32.921
39.552,32.902
40.028,32.884
40.458,32.867
40.834,32.85
41.149,32.833
41.402,32.816
41.592,32.799
41.721,32.783
41.793,32.768
41.811,32.754
41.782,32.739
41.713,32.725
41.609,32.71
41.477,32.697
41.324,32.684
41.155,32.673
40.977,32.662
40.795,32.651
40.613,32.639
40.435,32.626
40.261,32.612
40.093,32.599
39.93,32.588
39.774,32.582
39.626,32.582
39.485,32.59
39.352,32.608
39.225,32.638
39.104,32.684
38.987,32.745
38.872,32.823
38.76,32.92
38.649,33.036
38.538,33.175
38.426,33.338
38.312,33.533
38.198,33.763
38.081,34.032
37.964,34.343
37.845,34.693
37.727,35.077
37.61,35.489
37.494,35.919
37.38,36.356
37.27,36.791
37.165,37.214
37.066,37.617
36.973,37.992
36.886,38.33
36.805,38.627
36.732,38.878
36.666,39.082
36.607,39.237
36.556,39.345
36.512,39.407
36.473,39.428
36.441,39.412
36.413,39.364
36.391,39.289
36.373,39.194
36.358,39.082
36.344,38.959
36.332,38.826
36.321,38.689
36.311,38.548
36.303,38.407
36.296,38.268
36.289,38.134
36.281,38.006
36.271,37.885
36.259,37.77
36.246,37.661
36.231,37.559
36.213,37.462
36.19,37.37
36.154,37.281
36.105,37.194
36.042,37.109
35.97,37.023
35.891,36.938
35.811,36.854
35.733,36.77
35.66,36.687
35.595,36.603
35.541,36.519
35.498,36.436
35.466,36.356
35.444,36.279
35.431,36.206
35.427,36.138
35.429,36.074
35.433,36.014
35.438,35.959
35.439,35.908
35.435,35.861
35.424,35.817
35.405,35.778
35.378,35.741
35.343,35.709
35.3,35.68
35.25,35.656
35.193,35.637
35.13,35.622
35.064,35.611
34.996,35.603
34.927,35.595
34.859,35.588
34.792,35.581
34.727,35.576
34.664,35.572
34.603,35.569
34.544,35.566
34.487,35.562
34.433,35.559
34.384,35.555
34.339,35.552
34.298,35.548
34.26,35.544
34.224,35.538
34.189,35.529
34.152,35.516
34.115,35.5
34.076,35.481
34.036,35.459
33.994,35.434
33.95,35.407
33.904,35.376
33.856,35.342
33.806,35.306
33.755,35.27
33.703,35.233
33.653,35.195
33.606,35.158
33.561,35.121
33.518,35.081
33.478,35.041
33.439,35
33.403,34.961
33.369,34.923
33.338,34.889
33.309,34.857
33.285,34.827
33.266,34.798
33.253,34.77
33.245,34.741
33.245,34.712
33.255,34.684
33.275,34.655
33.308,34.627
33.356,34.599
33.422,34.571
33.507,34.543
33.612,34.517
33.741,34.492
33.896,34.467
34.084,34.443
34.313,34.419
34.592,34.395
34.929,34.372
35.327,34.348
35.787,34.326
36.306,34.303
36.874,34.28
37.479,34.255
38.107,34.23
38.744,34.202
39.375,34.173
39.985,34.143
40.562,34.112
41.096,34.081
41.576,34.05
41.997,34.018
42.352,33.987
42.639,33.956
42.858,33.925
43.009,33.894
43.098,33.865
43.13,33.836
43.11,33.807
43.045,33.778
42.943,33.747
42.811,33.716
42.657,33.683
42.486,33.65
42.305,33.617
42.119,33.584
41.932,33.553
41.745,33.521
41.562,33.489
41.384,33.457
41.214,33.425
41.053,33.393
40.9,33.36
40.755,33.326
40.616,33.289
40.482,33.251
40.352,33.212
40.224,33.17
40.096,33.128
39.968,33.084
39.838,33.039
39.706,32.994
39.57,32.951
39.432,32.91
39.29,32.872
39.146,32.836
39,32.803
38.851,32.772
38.701,32.743
38.551,32.714
38.405,32.684
38.262,32.655
38.123,32.625
37.989,32.593
37.861,32.562
37.739,32.53
37.623,32.501
37.515,32.475
37.413,32.453
37.317,32.438
37.228,32.429
37.144,32.427
37.066,32.433
36.994,32.447
36.928,32.471
36.869,32.506
36.816,32.553
36.768,32.612
36.725,32.684
36.689,32.771
36.658,32.87
36.631,32.982
36.608,33.108
36.587,33.246
36.569,33.399
36.553,33.565
36.539,33.748
36.526,33.946
36.513,34.162
36.5,34.396
36.486,34.648
36.469,34.917
36.448,35.197
36.425,35.483
36.397,35.767
36.364,36.043
36.324,36.304
36.278,36.545
36.226,36.761
36.169,36.948
36.108,37.102
36.044,37.222
35.977,37.307
35.911,37.36
35.845,37.383
35.781,37.379
35.721,37.351
35.663,37.301
35.607,37.233
35.553,37.152
35.501,37.061
35.45,36.963
35.4,36.861
35.35,36.758
35.3,36.655
35.249,36.554
35.198,36.457
35.144,36.366
35.089,36.281
35.032,36.203
34.971,36.132
34.909,36.066
34.845,36.004
34.781,35.945
34.717,35.888
34.653,35.833
34.588,35.78
34.524,35.73
34.459,35.682
34.394,35.634
34.33,35.587
34.268,35.539
34.207,35.492
34.148,35.444
34.09,35.397
34.033,35.35
33.977,35.304
33.922,35.257
33.867,35.212
33.814,35.169
33.762,35.129
33.711,35.094
33.663,35.064
33.616,35.039
33.569,35.019
33.522,35.004
33.476,34.993
33.43,34.986
33.385,34.982
33.34,34.982
33.297,34.984
33.254,34.988
33.21,34.995
33.166,35.004
33.119,35.016
33.071,35.029
33.023,35.043
32.975,35.057
32.93,35.069
32.887,35.078
32.85,35.085
32.82,35.087
32.796,35.087
32.783,35.083
32.78,35.076
32.79,35.068
32.816,35.058
32.857,35.046
32.915,35.032
32.991,35.017
33.085,35.002
33.199,34.986
33.337,34.97
33.503,34.955
33.707,34.938
33.958,34.921
34.263,34.903
34.627,34.885
35.052,34.867
35.535,34.848
36.071,34.828
36.652,34.807
37.266,34.784
37.9,34.761
38.543,34.736
39.18,34.71
39.797,34.681
40.382,34.65
40.924,34.617
41.414,34.581
41.845,34.542
42.212,34.499
42.51,34.454
42.739,34.407
42.9,34.361
42.997,34.317
43.036,34.276
43.022,34.237
42.963,34.202
42.866,34.169
