Trial 1:0back,Trial 6:0back
35.638,33.226
36.072,33.178
36.53,33.128
37.005,33.074
37.489,33.019
37.973,32.963
38.45,32.908
38.912,32.855
39.352,32.807
39.764,32.763
40.141,32.726
40.478,32.698
40.771,32.681
41.019,32.678
41.222,32.691
41.38,32.725
41.495,32.781
41.57,32.863
41.608,32.976
41.611,33.123
41.584,33.309
41.531,33.54
41.456,33.818
41.362,34.148
41.252,34.529
41.131,34.959
40.999,35.432
40.858,35.941
40.711,36.472
40.558,37.015
40.403,37.556
40.245,38.081
40.086,38.577
39.926,39.033
39.765,39.44
39.604,39.789
39.442,40.077
39.28,40.3
39.121,40.458
38.963,40.551
38.807,40.582
38.652,40.555
38.5,40.478
38.349,40.357
38.2,40.201
38.051,40.018
37.904,39.818
37.757,39.607
37.61,39.39
37.465,39.172
37.32,38.957
37.177,38.748
37.034,38.546
36.892,38.354
36.753,38.17
36.617,37.996
36.485,37.831
36.358,37.673
36.238,37.522
36.124,37.377
36.015,37.235
35.914,37.095
35.819,36.958
35.732,36.824
35.653,36.692
35.584,36.561
35.524,36.429
35.474,36.295
35.432,36.156
35.399,36.011
35.376,35.861
35.361,35.706
35.354,35.547
35.354,35.386
35.36,35.226
35.371,35.068
35.385,34.913
35.401,34.764
35.419,34.62
35.437,34.485
35.456,34.358
35.473,34.24
35.489,34.131
35.502,34.032
35.513,33.945
35.52,33.868
35.524,33.803
35.525,33.747
35.521,33.702
35.512,33.666
35.498,33.639
35.48,33.62
35.457,33.606
35.431,33.599
35.4,33.596
35.364,33.598
35.324,33.605
35.277,33.614
35.226,33.627
35.17,33.641
35.11,33.658
35.047,33.675
34.982,33.694
34.916,33.714
34.848,33.733
34.779,33.752
34.709,33.767
34.639,33.78
34.569,33.791
34.499,33.799
34.431,33.805
34.364,33.808
34.3,33.809
34.238,33.808
34.179,33.806
34.123,33.803
34.069,33.8
34.018,33.795
33.969,33.79
33.921,33.783
33.874,33.775
33.827,33.765
33.779,33.754
33.731,33.741
33.683,33.724
33.636,33.703
33.59,33.679
33.545,33.651
33.499,33.62
33.454,33.588
33.41,33.552
33.366,33.515
33.324,33.475
33.283,33.435
33.245,33.396
33.208,33.359
33.174,33.324
33.143,33.291
33.116,33.262
33.094,33.234
33.075,33.206
33.06,33.177
33.048,33.147
33.04,33.115
33.035,33.08
33.032,33.043
33.032,33.004
33.035,32.964
33.042,32.923
33.054,32.881
33.075,32.837
33.107,32.793
33.153,32.749
33.217,32.705
33.306,32.662
33.424,32.622
33.577,32.587
33.769,32.561
34.003,32.547
34.283,32.546
34.608,32.563
34.976,32.6
35.386,32.661
35.833,32.748
36.312,32.863
36.814,33.011
37.331,33.193
37.856,33.414
38.379,33.675
38.891,33.978
39.382,34.323
39.845,34.708
40.271,35.13
40.655,35.583
40.993,36.06
41.28,36.553
41.516,37.051
41.698,37.544
41.828,38.021
41.909,38.471
41.944,38.883
41.936,39.249
41.891,39.562
41.811,39.817
41.704,40.011
41.575,40.144
41.428,40.218
41.268,40.236
41.097,40.203
40.918,40.126
40.735,40.011
40.551,39.866
40.365,39.696
40.178,39.507
39.992,39.305
39.808,39.095
39.626,38.882
39.447,38.669
39.27,38.46
39.095,38.26
38.923,38.068
38.753,37.886
38.586,37.712
38.421,37.546
38.258,37.387
38.097,37.23
37.936,37.066
37.777,36.893
37.618,36.71
37.461,36.522
37.305,36.334
37.151,36.148
36.999,35.967
36.849,35.795
36.702,35.631
36.557,35.479
36.415,35.338
36.277,35.209
36.144,35.091
36.015,34.984
35.89,34.886
35.769,34.796
35.652,34.712
35.541,34.631
35.437,34.553
35.341,34.476
35.255,34.4
35.179,34.326
35.115,34.254
35.063,34.187
35.022,34.124
34.993,34.066
34.974,34.013
34.965,33.965
34.965,33.921
34.973,33.883
34.989,33.85
35.009,33.823
35.035,33.803
35.063,33.792
35.093,33.791
35.124,33.797
35.154,33.811
35.181,33.83
35.206,33.855
35.228,33.885
35.247,33.919
35.263,33.955
35.274,33.993
35.279,34.031
35.278,34.068
35.271,34.103
35.258,34.133
35.24,34.161
35.215,34.184
35.186,34.203
35.151,34.216
35.113,34.226
35.071,34.231
35.026,34.234
34.98,34.232
34.933,34.227
34.884,34.217
34.833,34.203
34.779,34.186
34.721,34.164
34.659,34.139
34.594,34.11
34.527,34.079
34.459,34.045
34.39,34.008
34.32,33.968
34.25,33.928
34.18,33.886
34.11,33.844
34.041,33.802
33.974,33.762
33.908,33.726
33.843,33.692
33.78,33.659
33.718,33.627
33.658,33.594
33.599,33.559
33.541,33.523
33.485,33.484
33.431,33.442
33.378,33.397
33.327,33.349
33.278,33.3
33.232,33.248
33.188,33.194
33.145,33.139
33.106,33.084
33.07,33.03
33.036,32.976
33.001,32.924
32.966,32.876
32.931,32.834
32.898,32.797
32.866,32.768
32.836,32.748
32.808,32.74
32.783,32.746
32.763,32.768
32.747,32.809
32.735,32.872
32.727,32.96
32.72,33.077
32.714,33.226
32.708,33.411
32.702,33.635
32.697,33.901
32.693,34.209
32.693,34.562
32.698,34.957
32.711,35.39
32.736,35.858
32.778,36.35
32.84,36.857
32.927,37.369
33.044,37.871
33.195,38.354
33.385,38.807
33.618,39.22
33.896,39.584
34.222,39.894
34.595,40.145
35.011,40.336
35.467,40.465
35.956,40.535
36.472,40.552
37.007,40.518
37.55,40.439
38.093,40.32
38.627,40.168
39.141,39.989
39.627,39.792
40.079,39.582
40.488,39.364
40.85,39.144
41.16,38.924
41.417,38.709
41.618,38.5
41.764,38.298
41.856,38.106
41.897,37.923
41.893,37.75
41.846,37.584
41.762,37.423
41.647,37.266
41.504,37.112
41.339,36.962
41.158,36.812
40.963,36.663
40.759,36.513
40.55,36.364
40.337,36.215
40.123,36.065
39.911,35.914
39.7,35.763
39.49,35.612
39.284,35.462
39.082,35.315
38.883,35.171
38.69,35.032
38.501,34.9
38.317,34.776
38.138,34.658
37.963,34.55
37.793,34.45
37.625,34.361
37.46,34.283
37.297,34.215
37.135,34.157
36.975,34.108
36.817,34.069
36.66,34.039
36.505,34.016
36.352,34.001
36.202,33.992
36.056,33.99
35.915,33.994
35.78,34.003
35.651,34.017
35.527,34.035
35.411,34.054
35.302,34.073
35.203,34.093
35.114,34.112
35.035,34.133
34.967,34.153
34.908,34.173
34.86,34.193
34.823,34.211
34.798,34.229
34.786,34.244
34.784,34.256
34.793,34.265
34.811,34.27
34.836,34.272
34.869,34.271
34.909,34.267
34.953,34.26
34.999,34.249
35.046,34.234
35.091,34.215
35.134,34.192
35.174,34.164
35.211,34.134
35.244,34.1
35.271,34.064
35.293,34.026
35.309,33.987
35.318,33.946
35.321,33.903
35.317,33.858
35.306,33.813
35.287,33.766
35.262,33.719
35.23,33.671
35.193,33.624
35.151,33.577
35.104,33.532
35.053,33.487
34.998,33.441
34.94,33.394
34.88,33.347
34.819,33.299
34.756,33.251
34.692,33.204
34.628,33.157
34.563,33.11
34.499,33.064
34.435,33.017
34.373,32.971
34.311,32.925
34.249,32.882
34.186,32.841
34.123,32.802
34.058,32.767
33.992,32.735
33.926,32.709
33.858,32.691
33.789,32.684
33.719,32.693
33.651,32.72
33.585,32.771
33.52,32.849
33.456,32.957
33.395,33.097
33.335,33.273
33.277,33.49
33.222,33.75
33.17,34.057
33.121,34.412
33.075,34.814
33.031,35.26
32.99,35.744
32.951,36.256
32.914,36.786
32.879,37.323
32.845,37.855
32.811,38.371
32.779,38.857
32.747,39.306
32.717,39.707
32.688,40.056
32.66,40.347
32.635,40.576
32.612,40.743
32.591,40.847
32.574,40.893
32.56,40.882
32.55,40.822
32.546,40.717
32.547,40.578
32.556,40.409
32.574,40.219
32.605,40.012
32.652,39.794
32.72,39.572
32.814,39.348
32.94,39.127
33.102,38.91
33.306,38.7
33.556,38.499
33.853,38.307
34.198,38.126
34.591,37.955
35.029,37.797
35.507,37.649
36.02,37.51
36.559,37.376
37.116,37.244
37.679,37.115
38.239,36.985
38.786,36.855
39.309,36.722
39.8,36.587
40.251,36.449
40.654,36.311
40.997,36.171
41.273,36.03
41.481,35.89
41.626,35.749
41.714,35.608
41.75,35.468
41.743,35.331
41.699,35.197
41.625,35.069
41.529,34.948
41.414,34.834
41.287,34.726
41.15,34.627
41.006,34.538
40.857,34.457
40.704,34.387
40.547,34.326
40.386,34.274
40.22,34.233
40.051,34.2
39.878,34.176
39.703,34.158
39.526,34.148
39.348,34.143
39.168,34.143
38.986,34.147
38.804,34.156
38.623,34.168
38.442,34.181
38.262,34.195
38.084,34.207
37.908,34.217
37.733,34.227
37.561,34.236
37.391,34.242
37.222,34.246
37.055,34.248
36.889,34.248
36.724,34.246
36.561,34.243
36.4,34.238
36.242,34.232
36.088,34.225
35.939,34.216
35.796,34.207
35.66,34.197
35.533,34.185
35.414,34.172
35.304,34.157
35.204,34.139
35.115,34.117
35.038,34.092
34.972,34.063
34.917,34.029
34.874,33.992
34.84,33.951
34.816,33.908
34.803,33.861
34.799,33.806
34.803,33.744
34.815,33.676
34.834,33.606
34.859,33.536
34.888,33.468
34.922,33.403
34.959,33.344
34.998,33.292
35.04,33.246
35.09,33.206
35.146,33.171
35.207,33.143
35.268,33.118
35.326,33.097
35.376,33.077
35.415,33.056
35.441,33.034
35.453,33.011
35.45,32.984
35.434,32.955
35.403,32.926
35.359,32.897
35.302,32.874
35.235,32.857
35.161,32.851
35.081,32.86
35,32.889
34.918,32.942
34.835,33.024
34.752,33.14
34.67,33.296
34.59,33.498
34.511,33.747
34.433,34.049
34.358,34.403
34.284,34.808
34.211,35.263
34.139,35.76
34.067,36.291
33.996,36.846
33.925,37.413
33.854,37.978
33.783,38.53
33.711,39.053
33.64,39.537
33.569,39.971
33.499,40.346
33.431,40.657
33.364,40.901
33.298,41.076
33.233,41.187
33.17,41.236
33.11,41.229
33.052,41.173
32.995,41.074
32.941,40.94
32.888,40.779
32.836,40.597
32.784,40.399
32.734,40.191
32.685,39.976
32.638,39.761
32.592,39.546
32.549,39.336
32.507,39.132
32.468,38.936
32.432,38.749
32.397,38.57
32.364,38.398
32.332,38.233
32.301,38.074
32.271,37.921
32.242,37.775
32.216,37.636
32.193,37.505
32.173,37.381
32.157,37.262
32.144,37.146
32.136,37.03
32.133,36.911
32.139,36.789
32.155,36.661
32.184,36.527
32.23,36.387
32.298,36.243
32.392,36.098
32.517,35.954
32.68,35.813
32.883,35.676
33.133,35.544
33.432,35.418
33.782,35.299
34.184,35.189
34.635,35.088
35.132,34.997
35.668,34.917
36.236,34.847
36.827,34.787
37.429,34.735
38.032,34.691
38.625,34.654
39.195,34.622
39.733,34.596
40.231,34.575
40.681,34.561
41.078,34.552
41.417,34.549
41.698,34.55
41.92,34.556
42.084,34.566
42.192,34.58
42.248,34.596
42.257,34.616
42.224,34.637
42.153,34.659
42.05,34.68
41.922,34.697
41.773,34.711
41.607,34.722
41.429,34.728
41.243,34.729
41.051,34.726
40.857,34.719
40.662,34.708
40.47,34.693
40.282,34.674
40.098,34.652
39.918,34.628
39.744,34.601
39.575,34.573
39.412,34.543
39.252,34.511
39.096,34.479
38.943,34.443
38.791,34.405
38.64,34.363
38.491,34.318
38.342,34.271
38.195,34.222
38.047,34.171
37.898,34.117
37.748,34.06
37.596,34.001
37.444,33.942
37.291,33.882
37.138,33.823
36.983,33.764
36.829,33.706
36.677,33.649
36.527,33.592
36.38,33.536
36.239,33.481
36.103,33.427
35.97,33.373
35.841,33.318
35.718,33.264
35.603,33.209
35.498,33.156
35.405,33.103
35.325,33.053
35.257,33.004
35.203,32.96
35.162,32.921
35.134,32.887
35.117,32.858
35.112,32.836
35.117,32.826
35.13,32.829
35.15,32.848
35.175,32.89
35.204,32.956
35.233,33.053
35.264,33.187
35.294,33.364
35.324,33.59
35.353,33.87
35.38,34.207
35.405,34.601
35.427,35.049
35.445,35.547
35.458,36.088
35.466,36.661
35.468,37.252
35.465,37.846
35.455,38.429
35.439,38.985
35.417,39.501
35.388,39.967
35.353,40.373
35.312,40.712
35.266,40.981
35.214,41.178
35.157,41.304
35.096,41.362
35.03,41.359
34.961,41.302
34.889,41.199
34.815,41.057
34.738,40.884
34.658,40.688
34.575,40.476
34.489,40.255
34.401,40.031
34.311,39.808
34.22,39.589
34.128,39.377
34.036,39.174
33.942,38.979
33.848,38.795
33.755,38.623
33.665,38.461
33.576,38.309
33.49,38.165
33.405,38.026
33.321,37.893
33.238,37.764
33.156,37.637
33.076,37.51
33.007,37.384
32.949,37.259
32.904,37.134
32.868,37.009
32.839,36.884
32.814,36.758
32.789,36.632
32.761,36.504
32.73,36.375
32.692,36.244
32.647,36.113
32.596,35.982
32.538,35.853
32.475,35.726
32.408,35.601
32.341,35.48
32.272,35.363
32.205,35.253
32.139,35.148
32.076,35.05
32.019,34.958
31.967,34.875
31.922,34.799
31.884,34.732
31.852,34.674
31.825,34.625
31.804,34.584
31.787,34.55
31.775,34.522
31.766,34.5
31.762,34.484
31.761,34.473
31.766,34.466
31.778,34.462
31.798,34.461
31.831,34.461
31.879,34.462
31.946,34.463
32.038,34.464
32.161,34.465
32.321,34.466
32.524,34.467
32.775,34.469
33.079,34.472
33.435,34.473
33.843,34.473
34.302,34.471
34.809,34.467
35.358,34.461
35.94,34.453
36.545,34.443
37.162,34.432
37.78,34.417
38.386,34.399
38.971,34.376
39.522,34.35
40.033,34.319
40.496,34.285
40.904,34.247
41.254,34.207
41.544,34.165
41.771,34.121
41.938,34.075
42.047,34.025
42.101,33.974
42.104,33.921
42.062,33.866
41.979,33.809
41.864,33.751
41.72,33.692
41.555,33.632
41.373,33.57
41.18,33.508
40.979,33.445
40.775,33.385
40.57,33.326
40.367,33.271
40.168,33.218
39.974,33.168
39.785,33.12
39.602,33.073
39.425,33.028
39.253,32.984
39.086,32.943
38.923,32.904
38.763,32.865
38.606,32.827
38.452,32.789
38.298,32.752
38.146,32.716
37.995,32.683
37.843,32.654
37.691,32.634
37.538,32.626
37.383,32.632
37.227,32.656
37.07,32.702
36.914,32.773
36.757,32.875
36.6,33.012
36.445,33.192
36.292,33.42
36.143,33.702
35.999,34.041
35.862,34.437
35.732,34.887
35.609,35.385
35.496,35.924
35.391,36.491
35.297,37.074
35.214,37.659
35.141,38.231
35.078,38.778
35.025,39.288
34.981,39.749
34.946,40.153
34.919,40.493
34.902,40.765
34.893,40.968
34.892,41.1
34.899,41.165
34.911,41.169
34.929,41.117
34.95,41.019
34.975,40.88
35.002,40.711
35.03,40.519
35.059,40.312
35.088,40.097
35.115,39.877
35.139,39.656
35.16,39.44
35.176,39.231
35.189,39.03
35.197,38.84
35.199,38.66
35.196,38.489
35.186,38.328
35.17,38.173
35.147,38.023
35.118,37.879
35.079,37.739
35.022,37.605
34.947,37.474
34.856,37.345
34.755,37.217
34.648,37.09
34.539,36.964
34.433,36.837
34.333,36.71
34.241,36.581
34.158,36.451
34.085,36.32
34.022,36.189
33.968,36.057
33.921,35.925
33.879,35.794
33.84,35.663
33.801,35.534
33.76,35.407
33.716,35.284
33.668,35.166
33.614,35.054
33.555,34.947
33.491,34.846
33.422,34.754
33.35,34.67
33.273,34.595
33.194,34.53
33.113,34.475
33.032,34.429
32.951,34.393
32.872,34.365
32.794,34.346
32.72,34.334
32.65,34.327
32.584,34.327
32.524,34.331
32.469,34.34
32.419,34.354
32.373,34.371
32.332,34.391
32.293,34.409
32.256,34.426
32.219,34.44
32.182,34.452
32.145,34.46
32.108,34.466
32.071,34.469
32.034,34.468
31.997,34.463
31.961,34.456
31.925,34.446
31.89,34.434
31.857,34.418
31.826,34.4
31.798,34.379
31.773,34.354
31.751,34.326
31.732,34.296
31.718,34.263
31.71,34.228
31.708,34.191
31.714,34.151
31.732,34.109
31.762,34.065
31.81,34.017
31.879,33.967
31.974,33.914
32.102,33.859
32.267,33.803
32.476,33.745
32.732,33.686
33.04,33.625
33.4,33.563
33.812,33.5
34.273,33.439
34.779,33.379
35.323,33.322
35.896,33.267
36.489,33.213
37.09,33.162
37.688,33.113
38.272,33.066
38.832,33.022
39.359,32.98
39.843,32.94
40.278,32.903
40.658,32.867
40.982,32.833
41.245,32.798
41.45,32.764
41.595,32.729
41.684,32.695
41.721,32.662
41.71,32.628
41.657,32.594
41.568,32.559
41.447,32.522
41.3,32.485
41.133,32.446
40.952,32.407
40.76,32.369
40.562,32.334
40.359,32.303
40.154,32.277
39.951,32.26
39.75,32.255
39.552,32.266
39.358,32.298
39.167,32.355
38.978,32.442
38.793,32.567
38.61,32.732
38.43,32.944
38.252,33.208
38.075,33.528
37.9,33.907
37.726,34.344
37.554,34.837
37.383,35.38
37.216,35.964
37.05,36.577
36.887,37.204
36.726,37.83
36.567,38.44
36.411,39.019
36.256,39.553
36.104,40.031
35.954,40.443
35.808,40.783
35.666,41.05
35.529,41.243
35.396,41.364
35.269,41.418
35.147,41.41
35.033,41.348
34.926,41.24
34.829,41.092
34.743,40.913
34.667,40.708
34.603,40.484
34.552,40.248
34.514,40.005
34.486,39.762
34.47,39.523
34.464,39.293
34.468,39.075
34.48,38.869
34.5,38.676
34.528,38.496
34.563,38.326
34.603,38.165
34.647,38.012
34.695,37.864
34.744,37.72
34.793,37.58
34.842,37.443
34.888,37.307
34.93,37.172
34.968,37.038
34.999,36.904
35.023,36.768
35.041,36.633
35.051,36.5
35.054,36.369
35.049,36.239
35.037,36.112
35.018,35.986
34.992,35.862
34.96,35.739
34.921,35.617
34.877,35.496
34.827,35.377
34.773,35.261
34.715,35.151
34.653,35.046
34.588,34.947
34.52,34.855
34.45,34.771
34.378,34.694
34.303,34.625
34.226,34.564
34.149,34.512
34.072,34.469
33.994,34.434
33.916,34.407
33.838,34.387
33.759,34.373
33.681,34.367
33.605,34.367
33.53,34.372
33.456,34.379
33.385,34.39
33.315,34.402
33.246,34.416
33.178,34.428
33.11,34.441
33.044,34.452
32.979,34.463
32.915,34.477
32.854,34.495
32.794,34.517
32.735,34.54
32.677,34.561
32.621,34.578
32.567,34.589
32.516,34.59
32.468,34.584
32.423,34.568
32.381,34.543
32.341,34.509
32.303,34.467
32.267,34.419
32.232,34.366
32.199,34.309
32.167,34.249
32.136,34.187
32.108,34.124
32.082,34.061
32.06,33.997
32.04,33.935
32.023,33.874
32.008,33.815
31.996,33.756
31.986,33.699
31.979,33.644
31.974,33.59
31.974,33.538
31.981,33.487
31.997,33.436
32.024,33.387
32.066,33.34
32.129,33.295
32.217,33.25
32.336,33.206
32.49,33.162
32.685,33.119
32.925,33.077
33.213,33.034
33.552,32.992
33.94,32.95
34.375,32.908
34.854,32.866
35.369,32.824
35.914,32.783
36.479,32.741
37.054,32.699
37.629,32.655
38.193,32.611
38.737,32.566
39.25,32.521
39.725,32.478
40.154,32.435
40.532,32.392
40.854,32.351
41.119,32.312
41.326,32.276
41.477,32.244
41.574,32.214
41.62,32.189
41.618,32.168
41.574,32.15
41.494,32.137
41.381,32.127
41.241,32.122
41.078,32.121
40.897,32.128
40.702,32.143
40.497,32.171
40.285,32.212
40.069,32.27
39.849,32.348
39.629,32.451
39.41,32.585
39.195,32.758
38.982,32.974
38.772,33.24
38.565,33.559
38.361,33.933
38.161,34.363
37.964,34.845
37.77,35.374
37.578,35.941
37.388,36.536
37.2,37.145
37.015,37.755
36.831,38.351
36.649,38.92
36.467,39.449
36.288,39.928
36.111,40.348
35.938,40.702
35.771,40.987
35.609,41.201
35.454,41.347
35.307,41.427
35.167,41.445
35.037,41.406
34.917,41.317
34.808,41.184
34.709,41.016
34.621,40.819
34.544,40.602
34.479,40.373
34.426,40.138
34.385,39.902
34.355,39.668
34.336,39.439
34.328,39.218
34.329,39.006
34.341,38.803
34.36,38.61
34.388,38.427
34.421,38.253
34.458,38.088
34.5,37.931
34.545,37.781
34.593,37.635
34.643,37.495
34.693,37.357
34.741,37.221
34.786,37.087
34.829,36.956
34.868,36.827
34.902,36.701
34.932,36.575
34.956,36.45
34.974,36.326
34.985,36.201
34.99,36.076
34.989,35.95
34.982,35.823
34.969,35.698
34.951,35.574
34.928,35.454
34.898,35.337
34.863,35.224
34.822,35.115
34.775,35.011
34.723,34.914
34.666,34.824
34.604,34.746
34.539,34.683
34.472,34.634
34.402,34.597
34.33,34.569
34.256,34.55
34.182,34.536
34.107,34.528
34.031,34.524
33.955,34.522
33.88,34.523
33.805,34.525
33.731,34.529
33.658,34.532
33.586,34.534
33.516,34.534
33.447,34.534
33.379,34.532
33.311,34.528
33.243,34.524
33.176,34.52
33.111,34.516
33.047,34.511
32.984,34.504
32.921,34.495
32.86,34.484
32.799,34.469
32.74,34.452
32.682,34.432
32.626,34.409
32.573,34.385
32.522,34.359
32.475,34.329
32.429,34.296
32.387,34.26
32.346,34.221
32.307,34.181
32.27,34.141
32.235,34.1
32.201,34.059
32.169,34.018
32.139,33.978
32.111,33.936
32.085,33.892
32.062,33.847
32.042,33.8
32.025,33.751
32.011,33.699
32.003,33.645
32.002,33.589
32.011,33.532
32.033,33.472
32.074,33.412
32.138,33.353
32.232,33.296
32.36,33.241
32.528,33.188
32.742,33.137
33.005,33.088
33.319,33.04
33.684,32.992
34.099,32.944
34.561,32.895
35.064,32.847
35.603,32.798
36.17,32.75
36.754,32.702
37.345,32.654
37.93,32.608
38.499,32.562
39.042,32.519
39.552,32.478
40.02,32.439
40.442,32.402
40.812,32.368
41.128,32.337
41.388,32.31
41.591,32.287
41.739,32.266
41.834,32.248
41.879,32.231
41.877,32.214
41.835,32.197
41.757,32.181
41.647,32.165
41.51,32.15
41.353,32.135
41.18,32.121
40.995,32.108
40.8,32.098
40.598,32.091
40.391,32.089
40.183,32.096
39.974,32.113
39.767,32.143
39.563,32.192
39.363,32.261
39.168,32.356
38.977,32.48
38.792,32.639
38.611,32.837
38.434,33.081
38.261,33.375
38.093,33.723
37.927,34.126
37.763,34.583
37.6,35.091
37.438,35.644
37.275,36.233
37.111,36.844
36.948,37.465
36.785,38.08
36.622,38.674
36.46,39.234
36.3,39.746
36.141,40.202
35.985,40.593
35.833,40.915
35.685,41.163
35.541,41.337
35.403,41.44
35.271,41.476
35.147,41.451
35.032,41.372
34.926,41.246
34.833,41.081
34.752,40.887
34.684,40.671
34.628,40.441
34.585,40.204
34.556,39.966
34.538,39.73
34.532,39.5
34.536,39.277
34.548,39.065
34.566,38.863
34.591,38.672
34.62,38.492
34.654,38.32
34.69,38.157
34.729,38
34.768,37.848
34.809,37.699
34.849,37.552
34.888,37.406
34.925,37.261
34.959,37.117
34.989,36.974
35.014,36.833
35.035,36.696
35.049,36.561
35.057,36.428
35.059,36.297
35.054,36.167
35.042,36.041
35.023,35.918
34.998,35.798
34.966,35.681
34.926,35.569
34.879,35.46
34.827,35.356
34.77,35.257
34.708,35.161
34.643,35.069
34.575,34.982
34.502,34.898
34.427,34.818
34.351,34.742
34.274,34.671
34.197,34.606
34.12,34.547
34.043,34.496
33.966,34.451
33.89,34.414
33.815,34.386
33.742,34.367
33.669,34.356
33.597,34.352
33.526,34.357
33.456,34.367
33.387,34.383
33.32,34.402
33.254,34.424
33.188,34.446
33.123,34.468
33.058,34.491
32.992,34.512
32.928,34.533
32.865,34.551
32.804,34.566
32.744,34.578
32.685,34.585
32.627,34.587
32.57,34.585
32.515,34.578
32.461,34.565
32.41,34.546
32.36,34.52
32.313,34.49
32.267,34.454
32.223,34.414
32.182,34.37
32.143,34.324
32.106,34.276
32.073,34.227
32.042,34.177
32.013,34.133
31.987,34.107
31.963,34.099
31.942,34.109
31.924,34.128
31.91,34.152
31.902,34.174
31.902,34.187
31.912,34.185
31.938,34.163
31.983,34.12
32.052,34.055
32.151,33.971
32.287,33.871
32.463,33.757
32.686,33.634
32.96,33.506
33.287,33.376
33.67,33.248
34.107,33.125
34.596,33.01
35.132,32.906
35.707,32.815
36.311,32.736
36.934,32.669
37.564,32.613
38.19,32.567
38.799,32.528
39.382,32.495
39.926,32.468
40.423,32.444
40.868,32.423
41.254,32.404
41.58,32.385
41.844,32.365
42.044,32.343
42.184,32.318
42.267,32.291
42.296,32.261
42.277,32.23
42.216,32.197
42.118,32.163
41.989,32.128
41.837,32.092
41.666,32.058
41.483,32.025
41.29,31.995
41.092,31.969
40.892,31.948
40.692,31.934
40.493,31.928
40.297,31.931
40.104,31.945
39.914,31.972
39.728,32.015
39.547,32.078
39.369,32.164
39.194,32.277
39.021,32.418
38.851,32.592
38.681,32.802
38.514,33.052
38.348,33.347
38.183,33.689
38.019,34.081
37.856,34.518
37.694,34.999
37.534,35.517
37.375,36.066
37.218,36.636
37.062,37.216
36.907,37.792
36.753,38.351
36.599,38.881
36.446,39.371
36.297,39.811
36.151,40.193
36.009,40.512
35.872,40.763
35.739,40.946
35.612,41.061
35.491,41.111
35.379,41.102
35.276,41.04
35.183,40.934
35.102,40.789
35.031,40.613
34.972,40.415
34.924,40.201
34.886,39.977
34.859,39.748
34.842,39.52
34.834,39.296
34.834,39.079
34.842,38.87
34.858,38.671
34.879,38.482
34.906,38.303
34.938,38.133
34.973,37.97
35.01,37.812
35.049,37.658
35.087,37.506
35.124,37.356
35.159,37.208
35.19,37.06
35.216,36.911
35.237,36.762
35.251,36.611
35.258,36.459
35.257,36.306
35.247,36.153
35.231,36
35.206,35.85
35.175,35.702
35.138,35.559
35.094,35.421
35.044,35.29
34.987,35.166
34.926,35.048
34.861,34.938
34.791,34.836
34.717,34.743
34.641,34.658
34.563,34.581
34.483,34.51
34.403,34.447
34.322,34.391
34.24,34.342
34.158,34.3
34.075,34.263
33.992,34.232
33.909,34.207
33.827,34.186
33.747,34.17
33.667,34.16
33.588,34.156
33.509,34.158
33.432,34.165
33.355,34.178
33.279,34.195
33.205,34.217
33.132,34.242
33.06,34.268
32.988,34.292
32.917,34.315
32.849,34.334
32.783,34.35
32.719,34.36
32.656,34.364
32.595,34.364
32.536,34.36
32.478,34.352
32.421,34.34
32.368,34.326
32.317,34.31
32.269,34.293
32.224,34.272
32.181,34.25
32.141,34.227
32.102,34.203
32.065,34.177
32.03,34.149
31.997,34.118
31.965,34.085
31.936,34.049
31.908,34.012
31.882,33.973
31.857,33.931
31.834,33.888
31.815,33.845
31.802,33.8
31.797,33.755
31.802,33.709
31.822,33.664
31.861,33.617
31.924,33.568
32.015,33.518
32.14,33.466
32.304,33.412
32.513,33.356
32.77,33.299
33.078,33.241
33.438,33.182
33.851,33.122
34.315,33.061
34.826,33.001
35.378,32.942
35.962,32.884
36.568,32.828
37.186,32.775
37.803,32.725
38.41,32.677
38.992,32.632
39.541,32.589
40.049,32.55
40.507,32.513
40.911,32.479
41.255,32.447
41.538,32.418
41.759,32.388
41.918,32.359
42.02,32.33
42.066,32.302
42.061,32.275
42.01,32.25
41.92,32.227
41.797,32.206
41.647,32.187
41.475,32.17
41.287,32.156
41.086,32.148
40.876,32.15
40.662,32.166
40.446,32.197
40.23,32.247
40.015,32.322
39.803,32.425
39.594,32.559
39.389,32.727
39.188,32.932
38.992,33.177
38.8,33.462
38.612,33.788
38.428,34.156
38.248,34.563
38.071,35.007
37.897,35.483
37.726,35.985
37.558,36.504
37.392,37.032
37.227,37.557
37.063,38.071
36.9,38.56
36.736,39.016
36.572,39.43
36.407,39.793
36.243,40.101
36.08,40.349
35.92,40.534
35.761,40.658
35.607,40.72
35.456,40.726
35.311,40.678
35.172,40.586
35.042,40.455
34.922,40.293
34.811,40.107
34.712,39.902
34.624,39.685
34.548,39.46
34.485,39.233
34.435,39.007
34.397,38.785
34.372,38.569
34.358,38.363
34.356,38.167
34.364,37.981
34.381,37.806
34.406,37.639
34.438,37.481
34.475,37.33
34.515,37.182
34.556,37.038
34.596,36.896
34.635,36.756
34.673,36.617
34.708,36.478
34.743,36.339
34.775,36.199
34.804,36.058
34.829,35.915
34.85,35.772
34.867,35.627
34.878,35.483
34.884,35.34
34.884,35.201
34.878,35.068
34.865,34.943
34.844,34.828
34.817,34.723
34.783,34.628
34.742,34.544
34.694,34.47
34.641,34.406
34.583,34.349
34.519,34.3
34.452,34.256
34.38,34.217
34.306,34.185
34.23,34.16
34.153,34.141
34.076,34.127
33.998,34.119
33.92,34.117
33.842,34.12
33.764,34.127
33.686,34.138
33.611,34.153
33.536,34.17
33.463,34.19
33.392,34.212
33.321,34.235
33.251,34.259
33.181,34.282
33.112,34.305
33.043,34.326
32.975,34.343
32.908,34.358
32.841,34.37
32.775,34.377
32.71,34.38
32.648,34.378
32.587,34.373
32.528,34.365
32.471,34.355
32.417,34.342
32.366,34.324
32.317,34.302
32.272,34.277
32.228,34.246
32.187,34.212
32.149,34.174
32.112,34.133
32.076,34.089
32.041,34.042
32.006,33.992
31.972,33.941
31.939,33.888
31.907,33.833
31.875,33.776
31.845,33.717
31.818,33.656
31.794,33.595
31.773,33.533
31.755,33.471
31.741,33.409
31.731,33.349
31.725,33.29
31.726,33.232
31.735,33.174
31.755,33.117
31.79,33.062
31.843,33.009
31.917,32.959
32.02,32.911
32.156,32.866
32.331,32.824
32.55,32.783
32.818,32.744
33.136,32.704
33.507,32.664
33.93,32.625
34.401,32.585
34.916,32.543
35.467,32.5
36.046,32.455
36.643,32.41
37.248,32.365
37.849,32.322
38.433,32.281
38.992,32.244
39.515,32.213
39.995,32.186
40.424,32.166
40.797,32.153
41.11,32.151
41.363,32.162
41.555,32.19
41.688,32.239
41.766,32.312
41.79,32.413
41.766,32.544
41.699,32.708
41.597,32.909
41.463,33.149
41.304,33.431
41.125,33.757
40.931,34.127
40.726,34.542
40.513,35
40.297,35.496
40.077,36.023
39.855,36.573
39.634,37.134
39.413,37.694
39.195,38.243
38.98,38.768
38.767,39.258
38.557,39.706
38.349,40.102
38.144,40.442
37.941,40.721
37.74,40.937
37.541,41.09
37.344,41.182
37.148,41.216
36.955,41.196
36.765,41.128
36.578,41.017
36.394,40.87
36.212,40.694
36.033,40.497
35.857,40.284
35.685,40.063
35.518,39.838
35.359,39.613
35.207,39.391
35.064,39.176
34.929,38.968
34.804,38.769
34.689,38.579
34.584,38.398
34.49,38.227
34.408,38.066
34.338,37.912
34.28,37.765
34.235,37.623
34.202,37.485
34.182,37.348
34.175,37.213
34.179,37.078
34.194,36.942
34.219,36.807
34.252,36.673
34.294,36.538
34.342,36.402
34.395,36.265
34.452,36.126
34.512,35.987
34.573,35.849
34.633,35.712
34.691,35.577
34.746,35.448
34.797,35.325
34.843,35.209
34.883,35.099
34.916,34.996
34.943,34.902
34.964,34.815
34.978,34.736
34.986,34.665
34.988,34.603
34.983,34.548
34.972,34.502
34.956,34.463
34.936,34.43
34.911,34.403
34.881,34.382
34.847,34.366
34.807,34.354
34.762,34.348
34.71,34.347
34.653,34.351
34.593,34.36
34.536,34.372
34.489,34.388
34.452,34.408
34.421,34.432
34.392,34.459
34.362,34.487
34.324,34.516
34.278,34.544
34.221,34.572
34.151,34.596
34.069,34.617
33.975,34.631
33.871,34.64
33.759,34.642
33.641,34.639
33.521,34.629
33.4,34.613
33.281,34.59
33.166,34.561
33.057,34.526
32.954,34.485
32.859,34.441
32.772,34.393
32.693,34.343
32.621,34.29
32.557,34.236
32.498,34.18
32.445,34.122
32.397,34.063
32.354,34.001
32.314,33.938
32.279,33.875
32.246,33.812
32.215,33.751
32.185,33.69
32.157,33.632
32.128,33.576
32.099,33.523
32.069,33.472
32.039,33.425
32.007,33.382
31.974,33.339
31.941,33.297
31.908,33.253
31.878,33.208
31.853,33.16
31.833,33.111
31.823,33.062
31.823,33.011
31.839,32.959
31.874,32.907
31.934,32.857
32.024,32.807
32.15,32.758
32.317,32.709
32.529,32.66
32.79,32.613
33.102,32.567
33.468,32.521
33.885,32.476
34.351,32.431
34.861,32.388
35.408,32.347
35.983,32.309
36.576,32.274
37.177,32.243
37.773,32.218
38.355,32.201
38.912,32.193
39.435,32.2
39.916,32.223
40.35,32.265
40.73,32.33
41.055,32.421
41.322,32.542
41.53,32.698
41.681,32.893
41.777,33.131
41.82,33.416
41.817,33.75
41.771,34.134
41.688,34.568
41.574,35.047
41.433,35.566
41.272,36.118
41.092,36.693
40.899,37.279
40.695,37.864
40.485,38.437
40.271,38.986
40.056,39.499
39.843,39.965
39.632,40.376
39.424,40.725
39.221,41.009
39.022,41.227
38.827,41.378
38.637,41.465
38.45,41.493
38.266,41.466
38.084,41.39
37.905,41.271
37.728,41.116
37.553,40.933
37.379,40.728
37.206,40.508
37.033,40.278
36.859,40.046
36.685,39.814
36.511,39.588
36.336,39.37
36.161,39.161
35.986,38.962
35.812,38.773
35.643,38.595
35.478,38.427
35.318,38.269
35.166,38.121
35.022,37.983
34.887,37.852
34.764,37.728
34.653,37.607
34.555,37.488
34.472,37.371
34.402,37.253
34.347,37.136
34.305,37.018
34.275,36.899
34.258,36.78
34.252,36.659
34.257,36.537
34.271,36.414
34.293,36.289
34.323,36.162
34.359,36.036
34.402,35.91
34.449,35.786
34.499,35.667
34.551,35.554
34.603,35.447
34.655,35.346
34.705,35.252
34.752,35.165
34.795,35.085
34.833,35.014
34.867,34.95
34.894,34.894
34.915,34.848
34.928,34.808
34.936,34.777
34.936,34.751
34.929,34.731
34.916,34.716
34.897,34.706
34.872,34.699
34.84,34.695
34.802,34.694
34.759,34.696
34.711,34.7
34.659,34.705
34.603,34.71
34.543,34.715
34.478,34.722
34.41,34.729
34.338,34.736
34.263,34.742
34.187,34.748
34.111,34.752
34.033,34.754
33.955,34.753
33.877,34.749
33.798,34.743
33.72,34.734
33.642,34.722
33.565,34.706
33.489,34.684
33.415,34.653
33.341,34.613
33.268,34.563
33.196,34.506
33.125,34.442
33.055,34.376
32.986,34.309
32.916,34.242
32.847,34.176
32.779,34.113
32.713,34.051
32.648,33.992
32.586,33.936
32.526,33.883
32.47,33.834
32.415,33.788
32.364,33.745
32.314,33.703
32.268,33.66
32.225,33.616
32.188,33.571
32.164,33.525
32.153,33.477
32.153,33.43
32.16,33.382
32.169,33.334
32.177,33.284
32.179,33.233
32.173,33.181
32.157,33.13
32.132,33.078
32.097,33.027
32.054,32.975
32.008,32.923
31.962,32.872
31.919,32.822
31.886,32.772
31.868,32.723
31.869,32.677
31.897,32.634
31.959,32.592
32.062,32.551
32.211,32.511
32.413,32.474
32.672,32.437
32.992,32.403
33.373,32.371
33.813,32.344
34.308,32.322
34.852,32.308
35.438,32.303
36.055,32.311
36.692,32.337
37.338,32.382
37.979,32.453
38.603,32.551
39.2,32.682
39.758,32.851
40.269,33.059
40.726,33.312
41.124,33.614
41.459,33.966
41.73,34.372
41.936,34.828
42.081,35.331
42.166,35.875
42.198,36.449
42.182,37.044
42.124,37.648
42.03,38.248
41.905,38.83
41.756,39.381
41.589,39.89
41.408,40.345
41.219,40.738
41.025,41.063
40.827,41.319
40.63,41.505
40.435,41.624
40.24,41.678
40.042,41.673
39.84,41.617
39.636,41.517
39.432,41.382
39.232,41.218
39.036,41.032
38.847,40.829
38.666,40.616
38.492,40.397
38.325,40.177
38.167,39.96
38.015,39.749
37.868,39.544
37.725,39.347
37.584,39.157
37.443,38.975
37.302,38.8
37.16,38.631
37.016,38.468
36.869,38.309
36.719,38.154
36.567,38.002
36.414,37.854
36.261,37.71
36.11,37.568
35.962,37.43
35.818,37.293
35.681,37.158
35.55,37.024
35.427,36.891
35.314,36.76
35.21,36.629
35.116,36.498
35.034,36.369
34.963,36.241
34.904,36.117
34.856,35.996
34.82,35.879
34.794,35.766
34.779,35.657
34.774,35.552
34.779,35.451
34.794,35.355
34.817,35.264
34.846,35.178
34.88,35.097
34.917,35.021
34.958,34.952
34.999,34.89
35.04,34.834
35.079,34.785
35.116,34.742
35.15,34.705
35.18,34.674
35.205,34.65
35.226,34.632
35.24,34.62
35.247,34.612
35.248,34.608
35.242,34.61
35.23,34.617
35.212,34.629
35.187,34.643
35.155,34.659
35.117,34.675
35.076,34.692
35.032,34.708
34.986,34.722
34.938,34.736
34.887,34.747
34.831,34.756
34.771,34.762
34.707,34.763
34.637,34.76
34.564,34.751
34.486,34.737
34.404,34.716
34.317,34.688
34.227,34.654
34.136,34.614
34.045,34.568
33.954,34.516
33.863,34.46
33.773,34.401
33.684,34.34
33.595,34.276
33.508,34.211
33.422,34.145
33.339,34.08
33.258,34.015
33.179,33.951
33.103,33.889
33.029,33.83
32.957,33.775
32.888,33.722
32.822,33.671
32.759,33.62
32.698,33.569
32.638,33.518
32.58,33.466
32.523,33.413
32.469,33.36
32.416,33.308
32.367,33.256
32.319,33.204
32.273,33.153
32.228,33.101
32.184,33.05
32.142,33
32.1,32.951
32.059,32.901
32.019,32.852
31.981,32.804
31.944,32.755
31.909,32.707
31.877,32.659
31.848,32.612
31.822,32.566
31.801,32.522
31.784,32.478
31.774,32.434
31.771,32.392
31.78,32.351
31.802,32.311
31.841,32.272
31.901,32.236
31.989,32.203
32.11,32.174
32.27,32.15
32.474,32.134
32.73,32.127
33.04,32.132
33.407,32.153
33.829,32.195
34.303,32.262
34.822,32.356
35.38,32.479
35.968,32.634
36.577,32.822
37.194,33.047
37.809,33.314
38.411,33.625
38.988,33.985
39.531,34.392
40.03,34.845
40.478,35.341
40.869,35.874
41.201,36.434
41.473,37.011
41.684,37.593
41.837,38.168
41.934,38.723
41.98,39.247
41.981,39.729
41.941,40.162
41.865,40.539
41.759,40.855
41.628,41.106
41.476,41.293
41.308,41.415
41.127,41.477
40.938,41.48
40.742,41.432
40.542,41.339
40.342,41.208
40.143,41.047
39.945,40.864
39.75,40.663
39.561,40.452
39.376,40.237
39.197,40.02
39.022,39.806
38.853,39.596
38.69,39.392
38.53,39.194
38.373,39.002
38.219,38.818
38.065,38.64
37.912,38.469
37.759,38.305
37.606,38.146
37.453,37.991
37.299,37.838
37.145,37.688
36.989,37.54
36.832,37.394
36.675,37.249
36.517,37.107
36.361,36.965
36.207,36.825
36.056,36.686
35.908,36.55
35.766,36.414
35.631,36.28
35.502,36.147
35.38,36.016
35.267,35.888
35.162,35.762
35.068,35.638
34.984,35.518
34.912,35.402
34.853,35.29
34.806,35.185
34.772,35.086
34.751,34.996
34.742,34.914
34.745,34.837
34.758,34.768
34.779,34.707
34.806,34.654
34.838,34.61
34.873,34.573
34.911,34.542
34.95,34.518
34.989,34.499
35.026,34.485
35.06,34.476
35.09,34.473
35.116,34.474
35.136,34.479
35.15,34.487
35.159,34.498
35.162,34.511
35.161,34.526
35.155,34.542
35.144,34.556
35.127,34.569
35.105,34.581
35.079,34.591
35.047,34.599
35.012,34.603
34.972,34.602
34.928,34.598
34.879,34.59
34.824,34.578
34.764,34.561
34.701,34.54
34.634,34.515
34.564,34.486
34.492,34.452
34.416,34.415
34.338,34.374
34.258,34.33
34.176,34.282
34.093,34.23
34.01,34.174
33.925,34.115
33.839,34.054
33.753,33.99
33.666,33.924
33.579,33.855
33.493,33.786
33.408,33.717
33.324,33.648
33.242,33.581
33.162,33.515
33.085,33.452
33.012,33.393
32.943,33.336
32.879,33.282
32.819,33.229
32.762,33.179
32.706,33.131
32.65,33.085
32.595,33.041
32.54,32.999
32.485,32.96
32.429,32.922
32.374,32.886
32.321,32.849
32.27,32.814
32.221,32.777
32.174,32.732
32.13,32.677
32.088,32.611
32.047,32.539
32.007,32.462
31.97,32.384
31.935,32.308
31.902,32.238
31.871,32.175
31.843,32.121
31.815,32.077
31.79,32.043
31.767,32.019
31.747,32.004
31.728,31.996
31.713,31.995
31.701,31.998
31.694,32.005
31.692,32.015
31.698,32.029
31.716,32.047
31.751,32.069
31.806,32.099
31.888,32.138
32.002,32.19
32.154,32.258
32.349,32.346
32.591,32.46
32.884,32.604
33.23,32.782
33.628,32.999
34.077,33.257
34.573,33.56
35.111,33.91
35.683,34.307
36.278,34.75
36.885,35.234
37.494,35.754
38.093,36.301
38.67,36.862
39.216,37.425
39.722,37.978
40.18,38.508
40.584,39.003
40.929,39.452
41.214,39.847
41.438,40.185
41.603,40.462
41.713,40.676
41.771,40.829
41.781,40.922
41.748,40.959
41.677,40.942
41.574,40.878
41.443,40.771
41.291,40.63
41.121,40.462
40.939,40.274
40.746,40.073
40.545,39.863
40.34,39.649
40.132,39.436
39.923,39.226
39.714,39.02
39.509,38.818
39.306,38.622
39.108,38.432
38.914,38.246
38.724,38.065
38.54,37.89
38.36,37.719
38.183,37.553
38.009,37.391
37.838,37.227
37.668,37.051
37.502,36.859
37.337,36.652
37.173,36.437
37.012,36.218
36.852,36.004
36.694,35.8
36.538,35.613
36.384,35.444
36.231,35.294
36.08,35.164
35.932,35.054
35.786,34.962
35.644,34.886
35.507,34.824
35.377,34.774
35.254,34.734
35.14,34.703
35.034,34.676
34.937,34.651
34.851,34.628
34.775,34.606
34.709,34.583
34.655,34.561
34.611,34.539
34.579,34.517
34.557,34.497
34.546,34.477
34.546,34.459
34.556,34.444
34.576,34.434
34.604,34.431
34.639,34.433
34.681,34.442
34.727,34.455
34.776,34.473
34.827,34.495
34.879,34.519
34.929,34.544
34.977,34.57
35.019,34.596
35.057,34.623
35.089,34.648
35.115,34.67
35.136,34.689
35.15,34.703
35.157,34.712
35.157,34.716
35.149,34.715
35.135,34.71
35.113,34.699
35.084,34.683
35.048,34.661
35.004,34.634
34.954,34.602
34.899,34.566
34.839,34.525
34.777,34.479
34.711,34.43
34.645,34.378
34.577,34.325
34.51,34.271
34.443,34.215
34.375,34.159
34.306,34.103
34.237,34.045
34.167,33.987
34.095,33.929
34.023,33.872
33.951,33.815
33.878,33.761
33.805,33.709
33.731,33.658
33.657,33.608
33.582,33.558
33.508,33.508
33.436,33.457
33.366,33.405
33.296,33.353
33.227,33.3
33.159,33.246
33.093,33.191
33.028,33.134
32.965,33.077
32.904,33.02
32.844,32.964
32.785,32.908
32.727,32.855
32.671,32.804
32.616,32.755
32.565,32.708
32.516,32.664
32.471,32.624
32.427,32.587
32.387,32.551
32.348,32.517
32.313,32.483
32.28,32.451
32.25,32.419
32.221,32.386
32.193,32.352
32.167,32.318
32.142,32.284
32.121,32.25
32.101,32.219
32.084,32.191
32.069,32.17
32.055,32.158
32.045,32.158
32.038,32.173
32.037,32.207
32.042,32.264
32.056,32.348
32.081,32.463
32.12,32.613
32.179,32.799
32.263,33.025
32.377,33.292
32.526,33.601
32.715,33.952
32.949,34.347
33.23,34.786
33.561,35.264
33.942,35.776
34.37,36.316
34.842,36.873
35.352,37.438
35.892,37.998
36.454,38.542
37.028,39.057
37.603,39.534
38.169,39.962
38.714,40.335
39.231,40.647
39.71,40.896
40.145,41.081
40.529,41.203
40.858,41.265
41.131,41.27
41.346,41.223
41.505,41.13
41.609,40.997
41.662,40.832
41.668,40.639
41.63,40.427
41.554,40.201
41.447,39.968
41.312,39.733
41.155,39.501
40.981,39.275
40.794,39.06
40.599,38.855
40.398,38.662
40.194,38.479
39.987,38.306
39.78,38.142
39.573,37.985
39.366,37.834
39.162,37.685
38.959,37.538
38.759,37.394
38.562,37.252
38.369,37.111
38.183,36.971
38.002,36.831
37.827,36.692
37.657,36.551
37.489,36.409
37.321,36.268
37.154,36.128
36.985,35.99
36.814,35.856
36.641,35.725
36.466,35.598
36.291,35.475
36.116,35.358
35.945,35.246
35.778,35.141
35.617,35.044
35.462,34.954
35.316,34.874
35.178,34.802
35.05,34.738
34.931,34.683
34.824,34.636
34.729,34.598
34.647,34.568
34.58,34.546
34.528,34.532
34.49,34.526
34.467,34.525
34.456,34.529
34.456,34.539
34.466,34.553
34.485,34.572
34.512,34.594
34.546,34.619
34.586,34.647
34.63,34.677
34.678,34.707
34.727,34.737
34.778,34.766
34.828,34.791
34.879,34.813
34.927,34.831
34.973,34.843
35.016,34.85
35.057,34.851
35.094,34.847
35.125,34.836
35.15,34.817
35.168,34.792
35.177,34.761
35.177,34.726
35.17,34.687
35.155,34.651
35.133,34.623
35.103,34.604
35.067,34.591
35.024,34.579
34.977,34.566
34.926,34.549
34.872,34.525
34.813,34.494
34.749,34.454
34.682,34.403
34.612,34.343
34.541,34.273
34.468,34.194
34.394,34.107
34.319,34.014
34.243,33.918
34.166,33.822
34.09,33.728
34.014,33.636
33.94,33.547
33.865,33.462
33.789,33.382
33.713,33.307
33.635,33.238
33.558,33.173
33.481,33.113
33.405,33.056
33.33,33
33.255,32.946
33.183,32.892
33.112,32.841
33.043,32.793
32.976,32.746
32.913,32.703
32.851,32.662
32.792,32.624
32.735,32.589
32.679,32.554
32.625,32.521
32.571,32.49
32.519,32.46
32.467,32.431
32.416,32.403
32.367,32.376
32.319,32.348
32.275,32.32
32.233,32.292
32.194,32.266
32.157,32.242
32.122,32.221
32.089,32.203
32.06,32.192
32.034,32.189
32.013,32.199
31.997,32.225
31.988,32.271
31.988,32.34
32.002,32.438
32.032,32.568
32.082,32.733
32.158,32.936
32.265,33.18
32.407,33.466
32.591,33.796
32.821,34.17
33.1,34.587
33.432,35.045
33.816,35.539
34.252,36.063
34.736,36.606
35.263,37.159
35.825,37.71
36.41,38.25
37.008,38.769
37.607,39.258
38.195,39.707
38.76,40.107
39.294,40.453
39.785,40.742
40.229,40.971
40.618,41.139
40.951,41.247
41.226,41.297
41.443,41.292
41.603,41.239
41.71,41.143
41.766,41.013
41.777,40.856
41.747,40.678
41.681,40.485
41.585,40.281
41.463,40.072
41.322,39.86
41.166,39.648
40.998,39.439
40.823,39.234
40.643,39.035
40.46,38.844
40.277,38.661
40.095,38.486
39.913,38.318
39.734,38.158
39.557,38.005
39.382,37.858
39.209,37.716
39.036,37.58
38.866,37.447
38.697,37.319
38.529,37.194
38.362,37.069
38.198,36.945
38.035,36.82
37.875,36.694
37.717,36.568
37.562,36.44
37.409,36.31
37.257,36.179
37.106,36.048
36.956,35.916
36.807,35.784
36.659,35.655
36.511,35.528
36.363,35.406
36.217,35.29
36.072,35.18
35.931,35.08
35.793,34.988
35.661,34.906
35.535,34.832
35.417,34.768
35.307,34.713
35.207,34.668
35.117,34.632
35.037,34.604
34.969,34.584
34.912,34.568
34.866,34.558
34.832,34.552
34.808,34.549
34.795,34.551
34.791,34.556
34.797,34.564
34.81,34.575
34.829,34.589
34.854,34.604
34.883,34.621
34.915,34.637
34.948,34.653
34.981,34.667
35.014,34.679
35.044,34.69
35.071,34.698
35.094,34.703
35.112,34.705
35.125,34.703
35.134,34.697
35.138,34.688
35.137,34.673
35.13,34.653
35.117,34.626
35.098,34.594
35.073,34.557
35.042,34.515
35.006,34.467
34.965,34.416
34.92,34.36
34.87,34.3
34.818,34.236
34.763,34.169
34.705,34.101
34.645,34.031
34.583,33.962
34.518,33.893
34.451,33.824
34.381,33.755
34.31,33.688
34.235,33.62
34.159,33.554
34.08,33.49
34.001,33.429
33.921,33.369
33.842,33.31
33.763,33.253
33.685,33.196
33.608,33.14
33.532,33.085
33.457,33.031
33.383,32.979
33.31,32.927
33.238,32.876
33.166,32.825
33.095,32.775
33.024,32.727
32.953,32.68
32.883,32.636
32.816,32.595
32.75,32.555
32.688,32.518
32.627,32.484
32.569,32.451
32.515,32.419
32.464,32.388
32.417,32.357
32.374,32.327
32.334,32.298
32.295,32.268
32.258,32.237
32.222,32.206
32.189,32.174
32.159,32.141
32.129,32.108
32.101,32.077
32.072,32.048
32.043,32.022
32.013,31.999
31.984,31.984
31.956,31.976
31.933,31.981
31.913,31.999
31.899,32.036
31.893,32.094
31.896,32.177
31.913,32.289
31.947,32.432
32.002,32.609
32.084,32.825
32.198,33.083
32.349,33.387
32.543,33.741
32.786,34.147
33.082,34.604
33.433,35.111
33.839,35.66
34.298,36.243
34.805,36.849
35.354,37.466
35.937,38.082
36.543,38.684
37.16,39.26
37.776,39.798
38.38,40.289
38.961,40.727
39.508,41.103
40.012,41.413
40.466,41.653
40.865,41.823
41.206,41.925
41.487,41.962
41.707,41.94
41.868,41.864
41.973,41.744
42.026,41.588
42.031,41.404
41.994,41.2
41.921,40.981
41.818,40.755
41.691,40.525
41.544,40.295
41.383,40.069
41.209,39.848
41.028,39.634
40.84,39.429
40.649,39.232
40.456,39.046
40.263,38.869
40.072,38.701
39.883,38.541
39.699,38.388
39.518,38.24
39.343,38.095
39.172,37.954
39.007,37.816
38.845,37.679
38.688,37.543
38.536,37.407
38.387,37.271
38.241,37.135
38.097,36.999
37.955,36.863
37.815,36.728
37.674,36.593
37.533,36.46
37.392,36.328
37.251,36.197
37.11,36.07
36.968,35.949
36.827,35.835
36.686,35.728
36.546,35.626
36.408,35.53
36.272,35.437
36.14,35.348
36.01,35.263
35.885,35.183
35.764,35.109
35.649,35.041
35.542,34.978
35.443,34.923
35.354,34.875
35.274,34.835
35.206,34.803
35.149,34.778
35.104,34.761
35.071,34.751
35.05,34.749
35.038,34.752
35.036,34.76
35.04,34.771
35.05,34.784
35.065,34.799
35.084,34.815
35.106,34.831
35.13,34.845
35.156,34.857
35.182,34.864
35.206,34.866
35.227,34.862
35.243,34.853
35.255,34.837
35.264,34.815
35.269,34.786
35.271,34.752
35.269,34.713
35.264,34.669
35.255,34.622
35.241,34.572
35.224,34.518
35.202,34.462
35.175,34.405
35.142,34.346
35.102,34.287
35.056,34.228
35.003,34.169
34.945,34.111
34.882,34.055
34.815,34
34.744,33.946
34.669,33.893
34.591,33.841
34.511,33.789
34.428,33.739
34.343,33.689
34.257,33.641
34.171,33.593
34.086,33.545
34.002,33.497
33.919,33.448
33.837,33.4
33.756,33.35
33.676,33.299
33.596,33.246
33.517,33.191
33.438,33.134
33.361,33.073
33.284,33.01
33.209,32.945
33.137,32.877
33.067,32.809
33,32.74
32.937,32.672
32.877,32.606
32.819,32.545
32.764,32.487
32.712,32.435
32.661,32.387
32.611,32.345
32.563,32.307
32.516,32.273
32.469,32.242
32.423,32.214
32.378,32.188
32.334,32.162
32.292,32.137
32.254,32.111
32.219,32.084
32.188,32.058
32.159,32.032
32.13,32.006
32.103,31.98
32.076,31.954
32.05,31.93
32.025,31.908
32,31.89
31.977,31.878
31.954,31.876
31.934,31.884
31.916,31.906
31.902,31.944
31.893,32.004
31.888,32.09
31.89,32.205
31.901,32.354
31.925,32.539
31.965,32.765
32.028,33.034
32.116,33.35
32.236,33.714
32.391,34.126
32.588,34.588
32.832,35.095
33.125,35.641
33.472,36.218
33.87,36.815
34.317,37.42
34.808,38.021
35.339,38.602
35.901,39.15
36.485,39.656
37.079,40.11
37.673,40.504
38.256,40.835
38.819,41.098
39.351,41.294
39.843,41.425
40.287,41.495
40.679,41.506
41.014,41.464
41.289,41.374
41.505,41.244
41.662,41.079
41.761,40.888
41.808,40.676
41.807,40.451
41.764,40.219
41.684,39.985
41.572,39.751
41.436,39.523
41.281,39.3
41.112,39.086
40.932,38.88
40.746,38.682
40.557,38.49
40.366,38.305
40.177,38.125
39.988,37.952
39.801,37.785
39.615,37.625
39.434,37.471
39.256,37.323
39.083,37.181
38.916,37.043
38.755,36.909
38.599,36.778
38.448,36.65
38.301,36.525
38.158,36.401
38.015,36.277
37.874,36.153
37.732,36.029
37.589,35.904
37.446,35.779
37.301,35.657
37.154,35.538
37.004,35.423
36.853,35.312
36.7,35.206
36.547,35.104
36.394,35.005
36.243,34.911
36.095,34.822
35.952,34.739
35.815,34.664
35.684,34.598
35.562,34.541
35.449,34.493
35.343,34.452
35.247,34.42
35.161,34.396
35.085,34.379
35.019,34.37
34.965,34.369
34.924,34.375
34.893,34.387
34.873,34.402
34.862,34.419
34.861,34.438
34.867,34.457
34.882,34.477
34.902,34.496
34.928,34.514
34.958,34.53
34.99,34.543
35.022,34.553
35.054,34.56
35.083,34.563
35.11,34.563
35.134,34.56
35.153,34.553
35.168,34.541
35.178,34.525
35.183,34.504
35.183,34.477
35.177,34.445
35.166,34.408
35.149,34.367
35.125,34.322
35.096,34.274
35.058,34.223
35.013,34.17
34.961,34.116
34.901,34.06
34.835,34.001
34.763,33.938
34.688,33.872
34.61,33.802
34.53,33.732
34.451,33.66
34.371,33.588
34.291,33.516
34.213,33.446
34.135,33.377
34.06,33.31
33.986,33.245
33.914,33.184
33.843,33.126
33.774,33.07
33.704,33.018
33.634,32.968
33.563,32.92
33.49,32.874
33.416,32.829
33.342,32.785
33.267,32.74
33.192,32.697
33.116,32.654
33.04,32.612
32.964,32.569
32.889,32.527
32.816,32.485
32.746,32.443
32.68,32.401
32.619,32.36
32.562,32.319
32.509,32.28
32.459,32.242
32.413,32.206
32.37,32.172
32.33,32.14
32.292,32.109
32.256,32.079
32.222,32.05
32.188,32.023
32.154,31.998
32.119,31.976
32.086,31.955
32.053,31.935
32.022,31.916
31.993,31.9
31.965,31.885
31.939,31.872
31.915,31.86
31.894,31.848
31.876,31.837
31.862,31.828
31.852,31.82
31.844,31.816
31.837,31.817
31.832,31.827
31.827,31.848
31.824,31.885
31.823,31.941
31.824,32.02
31.83,32.126
31.842,32.263
31.865,32.434
31.901,32.643
31.956,32.893
32.033,33.187
32.14,33.523
32.28,33.903
32.458,34.325
32.68,34.787
32.95,35.285
33.27,35.81
33.642,36.354
34.065,36.907
34.535,37.46
35.047,38
35.594,38.516
36.166,38.998
36.753,39.435
37.344,39.821
37.927,40.15
38.493,40.418
39.031,40.623
39.531,40.768
39.987,40.853
40.393,40.88
40.744,40.854
41.039,40.781
41.275,40.666
41.454,40.517
41.576,40.341
41.646,40.143
41.666,39.931
41.642,39.708
41.579,39.48
41.481,39.252
41.354,39.026
41.205,38.806
41.036,38.595
40.853,38.392
40.658,38.197
40.455,38.011
40.248,37.833
40.04,37.662
39.833,37.497
39.629,37.336
39.427,37.178
39.231,37.024
39.039,36.872
38.852,36.723
38.67,36.576
38.494,36.432
38.324,36.291
38.159,36.153
38,36.018
37.844,35.886
37.691,35.758
37.538,35.634
37.385,35.516
37.229,35.403
37.07,35.294
36.91,35.19
36.748,35.088
36.584,34.99
36.42,34.893
36.256,34.8
36.092,34.712
35.931,34.63
35.774,34.555
35.623,34.488
35.479,34.429
35.344,34.377
35.218,34.334
35.104,34.299
35.002,34.274
34.912,34.258
34.836,34.251
34.772,34.252
34.721,34.259
34.683,34.271
34.656,34.287
34.64,34.308
34.635,34.333
34.638,34.363
34.649,34.399
34.667,34.441
34.69,34.489
34.717,34.54
34.75,34.589
34.785,34.636
34.821,34.677
34.86,34.711
34.898,34.737
34.935,34.754
34.972,34.763
35.006,34.763
35.039,34.754
35.068,34.735
35.092,34.708
35.112,34.673
35.126,34.632
35.136,34.588
35.139,34.541
35.136,34.492
35.127,34.442
35.11,34.39
35.085,34.338
35.052,34.286
35.013,34.234
34.966,34.181
34.914,34.128
34.857,34.074
34.789,34.019
34.707,33.963
34.614,33.904
34.51,33.845
34.4,33.784
34.288,33.722
34.18,33.661
34.077,33.6
33.983,33.541
33.899,33.482
33.826,33.424
33.763,33.365
33.708,33.307
33.661,33.249
33.619,33.192
33.581,33.134
33.544,33.078
33.507,33.022
33.469,32.967
33.429,32.913
33.386,32.86
33.34,32.809
33.291,32.761
33.238,32.715
33.184,32.67
33.127,32.627
33.068,32.586
33.007,32.547
32.947,32.508
32.888,32.471
32.831,32.434
32.776,32.398
32.723,32.364
32.673,32.331
32.625,32.297
32.579,32.263
32.536,32.228
32.495,32.194
32.455,32.161
32.418,32.129
32.381,32.1
32.346,32.074
32.313,32.053
32.281,32.038
32.252,32.032
32.226,32.035
32.202,32.048
32.181,32.074
32.161,32.112
32.144,32.167
32.129,32.24
32.116,32.335
32.106,32.454
32.1,32.601
32.099,32.777
32.106,32.987
32.123,33.232
32.154,33.514
32.204,33.835
32.278,34.196
32.381,34.594
32.519,35.029
32.696,35.496
32.918,35.99
33.187,36.503
33.507,37.026
33.877,37.55
34.297,38.065
34.762,38.562
35.267,39.032
35.805,39.466
36.367,39.856
36.942,40.196
37.52,40.48
38.089,40.706
38.639,40.873
39.16,40.98
39.643,41.032
40.08,41.031
40.466,40.982
40.796,40.89
41.069,40.762
41.282,40.604
41.438,40.422
41.539,40.222
41.59,40.011
41.594,39.792
41.557,39.569
41.483,39.347
41.378,39.128
41.247,38.914
41.094,38.707
40.924,38.507
40.741,38.315
40.547,38.131
40.346,37.955
40.142,37.788
39.936,37.628
39.73,37.475
39.526,37.329
39.323,37.187
39.124,37.048
38.928,36.912
38.736,36.777
38.547,36.643
38.36,36.509
38.176,36.375
37.993,36.241
37.813,36.107
37.637,35.976
37.463,35.846
37.291,35.719
37.12,35.596
36.951,35.477
36.782,35.362
36.616,35.253
36.458,35.149
36.312,35.05
36.179,34.957
36.055,34.871
35.938,34.792
35.826,34.723
35.715,34.665
35.605,34.616
35.494,34.577
35.382,34.546
35.27,34.523
35.158,34.509
35.049,34.501
34.944,34.499
34.846,34.501
34.757,34.506
34.678,34.514
34.61,34.523
34.556,34.534
34.516,34.546
34.49,34.558
34.479,34.572
34.481,34.586
34.497,34.602
34.524,34.619
34.562,34.636
34.608,34.653
34.661,34.669
34.718,34.682
34.777,34.692
34.836,34.698
34.892,34.701
34.944,34.7
34.99,34.694
35.028,34.683
35.059,34.666
35.082,34.643
35.098,34.613
35.104,34.577
35.101,34.534
35.088,34.488
35.067,34.438
35.038,34.386
35.002,34.331
34.96,34.275
34.913,34.218
34.861,34.159
34.805,34.098
34.745,34.037
34.682,33.975
34.618,33.912
34.552,33.848
34.487,33.784
34.421,33.718
34.354,33.651
34.286,33.583
34.216,33.514
34.144,33.446
34.07,33.38
33.995,33.317
33.918,33.256
33.837,33.197
33.753,33.14
33.665,33.084
33.573,33.029
33.481,32.976
33.39,32.923
33.302,32.872
33.218,32.821
33.14,32.771
33.068,32.72
33.002,32.669
32.942,32.617
32.888,32.566
32.839,32.516
32.793,32.467
32.75,32.418
32.709,32.369
32.669,32.321
32.628,32.275
32.588,32.231
32.547,32.191
32.505,32.154
32.463,32.12
32.42,32.087
32.376,32.056
32.331,32.025
32.288,31.997
32.245,31.97
32.203,31.947
32.164,31.927
32.126,31.912
32.091,31.903
32.058,31.901
32.028,31.909
32.002,31.929
31.98,31.965
31.961,32.022
31.944,32.103
31.928,32.211
31.915,32.35
31.905,32.525
31.897,32.737
31.894,32.99
31.898,33.285
31.912,33.625
31.937,34.013
31.978,34.448
32.04,34.928
32.128,35.447
32.247,35.999
32.401,36.576
32.596,37.166
32.836,37.757
33.125,38.338
33.466,38.896
33.858,39.423
34.3,39.907
34.789,40.342
35.318,40.721
35.88,41.04
36.465,41.296
37.063,41.488
37.663,41.616
38.253,41.683
38.823,41.693
39.362,41.652
39.862,41.565
40.314,41.44
40.714,41.283
41.059,41.1
41.345,40.9
41.572,40.686
41.742,40.464
41.857,40.238
41.92,40.013
41.935,39.79
41.908,39.572
41.841,39.362
41.743,39.161
41.617,38.97
41.469,38.799
41.304,38.652
41.126,38.528
40.94,38.422
40.749,38.33
40.557,38.244
40.365,38.158
40.175,38.066
39.988,37.964
39.804,37.85
39.624,37.723
39.448,37.583
39.276,37.43
39.109,37.267
38.945,37.094
38.785,36.916
38.629,36.733
38.476,36.55
38.325,36.368
38.175,36.191
38.027,36.02
37.88,35.857
37.732,35.704
37.584,35.563
37.436,35.434
37.287,35.317
37.138,35.211
36.989,35.116
36.84,35.031
36.692,34.955
36.544,34.888
36.397,34.828
36.252,34.776
36.109,34.731
35.97,34.694
35.835,34.663
35.706,34.64
35.584,34.622
35.47,34.611
35.365,34.604
35.268,34.603
35.181,34.606
35.104,34.614
35.037,34.626
34.981,34.64
34.937,34.656
34.904,34.673
34.883,34.691
34.871,34.709
34.869,34.726
34.874,34.741
34.885,34.752
34.901,34.758
34.921,34.76
34.943,34.756
34.968,34.747
34.992,34.733
35.015,34.714
35.037,34.691
35.058,34.664
35.077,34.634
35.093,34.6
35.107,34.563
35.116,34.521
35.121,34.476
35.12,34.428
35.114,34.378
35.103,34.325
35.086,34.268
35.063,34.207
35.034,34.143
34.997,34.077
34.955,34.01
34.906,33.943
34.851,33.874
34.791,33.806
34.726,33.737
34.656,33.67
34.582,33.604
34.506,33.541
34.427,33.48
34.348,33.422
34.269,33.365
34.189,33.31
34.11,33.256
34.031,33.203
33.953,33.152
33.874,33.102
33.795,33.052
33.715,33.003
33.635,32.955
33.554,32.906
33.472,32.858
33.391,32.809
33.31,32.761
33.229,32.713
33.147,32.665
33.064,32.617
32.981,32.568
32.899,32.518
32.818,32.468
32.74,32.42
32.666,32.373
32.596,32.33
32.532,32.289
32.472,32.25
32.418,32.213
32.369,32.178
32.324,32.145
32.285,32.115
32.249,32.087
32.217,32.062
32.187,32.038
32.158,32.017
32.129,31.997
32.099,31.981
32.069,31.969
32.041,31.964
32.013,31.967
31.986,31.98
31.96,32.007
31.936,32.05
31.912,32.112
31.889,32.198
31.867,32.314
31.845,32.462
31.823,32.648
31.802,32.876
31.782,33.147
31.764,33.465
31.747,33.83
31.733,34.244
31.722,34.706
31.714,35.212
31.709,35.758
31.708,36.336
31.713,36.936
31.727,37.547
31.751,38.156
31.789,38.75
31.845,39.315
31.926,39.841
32.036,40.317
32.183,40.734
32.372,41.086
32.608,41.371
32.895,41.587
33.237,41.735
33.633,41.817
34.083,41.836
34.582,41.796
35.125,41.706
35.702,41.574
36.305,41.407
36.923,41.213
37.546,40.999
38.159,40.772
38.753,40.54
39.317,40.306
39.842,40.076
40.319,39.853
40.743,39.638
41.108,39.433
41.413,39.238
41.656,39.052
41.837,38.873
41.96,38.7
42.028,38.534
42.044,38.372
42.015,38.216
41.948,38.064
41.847,37.916
41.718,37.773
41.567,37.631
41.398,37.491
41.217,37.351
41.028,37.212
40.834,37.074
40.638,36.938
40.442,36.804
40.249,36.671
40.058,36.541
39.872,36.413
39.69,36.286
39.512,36.16
39.339,36.036
39.17,35.914
39.005,35.796
38.844,35.682
38.687,35.572
38.532,35.467
38.38,35.367
38.232,35.273
38.085,35.184
37.941,35.101
37.798,35.025
37.655,34.957
37.512,34.896
37.369,34.841
37.225,34.792
37.079,34.749
36.931,34.712
36.781,34.679
36.63,34.651
36.478,34.628
36.327,34.61
36.177,34.598
36.03,34.591
35.887,34.588
35.749,34.589
35.616,34.593
35.491,34.601
35.373,34.613
35.263,34.627
35.163,34.643
35.074,34.66
34.995,34.676
34.928,34.69
34.872,34.698
34.828,34.699
34.796,34.693
34.774,34.68
34.763,34.66
34.762,34.634
34.771,34.604
34.787,34.572
34.809,34.536
34.836,34.498
34.865,34.459
34.896,34.419
34.927,34.379
34.957,34.338
34.986,34.296
35.011,34.253
35.033,34.208
35.05,34.162
35.061,34.113
35.066,34.062
35.064,34.009
35.056,33.954
35.041,33.896
35.019,33.835
34.992,33.773
34.958,33.71
34.92,33.647
34.876,33.583
34.826,33.518
34.772,33.452
34.713,33.385
34.65,33.317
34.584,33.248
34.515,33.178
34.443,33.109
34.368,33.039
34.292,32.971
34.214,32.905
34.135,32.842
34.055,32.781
33.974,32.724
33.891,32.67
33.808,32.619
33.724,32.571
33.639,32.525
33.555,32.481
33.47,32.438
33.387,32.396
33.305,32.357
33.223,32.319
33.143,32.284
33.064,32.248
32.989,32.214
32.918,32.179
32.85,32.145
32.786,32.111
32.726,32.078
32.667,32.044
32.611,32.012
32.554,31.983
32.497,31.959
32.441,31.942
32.384,31.936
32.327,31.941
32.271,31.962
32.217,32
32.165,32.059
32.116,32.143
32.069,32.256
32.025,32.401
31.983,32.58
31.942,32.798
31.903,33.057
31.867,33.36
31.833,33.709
31.801,34.102
31.772,34.538
31.744,35.014
31.719,35.526
31.696,36.067
31.675,36.629
31.658,37.198
31.644,37.764
31.633,38.315
31.624,38.836
31.617,39.319
31.61,39.752
31.603,40.131
31.597,40.449
31.592,40.704
31.59,40.895
31.588,41.024
31.59,41.094
31.595,41.111
31.607,41.078
31.628,41
31.66,40.885
31.708,40.738
31.776,40.566
31.868,40.375
31.988,40.171
32.143,39.96
32.337,39.746
32.576,39.533
32.863,39.324
33.2,39.118
33.588,38.919
34.023,38.725
34.505,38.539
35.027,38.359
35.583,38.187
36.163,38.022
36.757,37.865
37.356,37.714
37.948,37.568
38.523,37.425
39.07,37.283
39.582,37.142
40.049,37.002
40.466,36.862
40.827,36.721
41.13,36.581
41.372,36.441
41.554,36.301
41.678,36.161
41.747,36.023
41.765,35.888
41.736,35.756
41.667,35.628
41.564,35.507
41.431,35.391
41.275,35.281
41.1,35.176
40.909,35.077
40.71,34.983
40.504,34.895
40.295,34.814
40.086,34.739
39.879,34.671
39.675,34.61
39.476,34.556
39.282,34.51
39.094,34.471
38.911,34.44
38.732,34.415
38.559,34.397
38.389,34.386
38.223,34.382
38.062,34.383
37.903,34.388
37.746,34.396
37.592,34.407
37.439,34.418
37.286,34.431
37.133,34.444
36.98,34.459
36.825,34.473
36.671,34.487
36.517,34.499
36.364,34.509
36.212,34.517
36.061,34.523
35.911,34.528
35.764,34.53
35.621,34.53
35.482,34.528
35.351,34.522
35.227,34.512
35.111,34.497
35.004,34.478
34.905,34.454
34.815,34.424
34.735,34.39
34.664,34.351
34.601,34.307
34.548,34.258
34.505,34.205
34.472,34.148
34.448,34.089
34.435,34.028
34.431,33.967
34.436,33.907
34.449,33.847
34.469,33.788
34.496,33.73
34.527,33.672
34.562,33.614
34.598,33.555
34.635,33.498
34.672,33.441
34.707,33.385
34.74,33.329
34.768,33.274
34.792,33.218
34.81,33.163
34.821,33.109
34.826,33.057
34.823,33.007
34.813,32.957
34.797,32.907
34.774,32.858
34.746,32.809
34.712,32.76
34.672,32.711
34.627,32.663
34.578,32.614
34.525,32.567
34.469,32.521
34.411,32.475
34.351,32.43
34.286,32.386
34.218,32.344
34.147,32.304
34.073,32.266
33.997,32.23
33.92,32.195
33.842,32.163
33.764,32.135
33.685,32.113
33.605,32.097
33.525,32.091
33.445,32.094
33.367,32.111
33.289,32.142
33.213,32.191
33.139,32.262
33.066,32.359
32.995,32.483
32.925,32.638
32.857,32.826
32.789,33.05
32.722,33.312
32.655,33.614
32.59,33.955
32.527,34.337
32.467,34.756
32.41,35.211
32.357,35.695
32.308,36.202
32.263,36.722
32.222,37.248
32.186,37.768
32.154,38.273
32.125,38.754
32.1,39.2
32.076,39.605
32.053,39.96
32.032,40.258
32.011,40.497
31.991,40.675
31.973,40.792
31.955,40.851
31.939,40.854
31.924,40.808
31.91,40.718
31.896,40.591
31.881,40.433
31.867,40.253
31.853,40.055
31.84,39.846
31.828,39.63
31.817,39.41
31.808,39.189
31.8,38.972
31.794,38.76
31.789,38.556
31.787,38.358
31.789,38.166
31.798,37.981
31.814,37.804
31.839,37.634
31.877,37.472
31.929,37.315
32,37.165
32.095,37.019
32.218,36.878
32.376,36.74
32.57,36.605
32.807,36.472
33.089,36.341
33.42,36.21
33.799,36.08
34.226,35.952
34.696,35.826
35.206,35.702
35.746,35.579
36.311,35.458
36.889,35.34
37.471,35.227
38.045,35.119
38.6,35.018
39.127,34.925
39.617,34.84
40.063,34.764
40.458,34.696
40.797,34.636
41.08,34.584
41.303,34.539
41.468,34.499
41.577,34.466
41.633,34.438
41.64,34.416
41.602,34.402
41.524,34.394
41.411,34.392
41.269,34.397
41.104,34.406
40.919,34.421
40.72,34.44
40.511,34.461
40.293,34.486
40.071,34.512
39.848,34.54
39.626,34.568
39.406,34.596
39.189,34.621
38.974,34.643
38.763,34.662
38.555,34.677
38.352,34.688
38.152,34.695
37.957,34.696
37.765,34.691
37.574,34.681
37.387,34.664
37.203,34.641
37.022,34.613
36.843,34.581
36.665,34.543
36.49,34.5
36.316,34.453
36.146,34.402
35.984,34.348
35.833,34.289
35.693,34.228
35.563,34.166
35.442,34.104
35.329,34.04
35.22,33.976
35.115,33.911
35.013,33.846
34.913,33.781
34.816,33.717
34.723,33.654
34.636,33.593
34.556,33.533
34.485,33.474
34.423,33.415
34.371,33.356
34.331,33.299
34.303,33.246
34.287,33.195
34.284,33.148
34.292,33.103
34.31,33.061
34.336,33.021
34.369,32.982
34.408,32.943
34.45,32.904
34.496,32.864
34.543,32.824
34.591,32.784
34.637,32.742
34.68,32.699
34.718,32.654
34.751,32.609
34.779,32.56
34.801,32.509
34.815,32.456
34.823,32.402
34.822,32.35
34.815,32.299
34.8,32.253
34.778,32.212
34.751,32.18
34.717,32.159
34.678,32.152
34.634,32.159
34.584,32.183
34.53,32.226
34.472,32.29
34.41,32.379
34.345,32.494
34.277,32.64
34.208,32.817
34.138,33.029
34.067,33.277
33.996,33.561
33.924,33.882
33.851,34.242
33.777,34.64
33.703,35.075
33.628,35.544
33.553,36.043
33.477,36.563
33.399,37.098
33.319,37.637
33.238,38.17
33.156,38.684
33.075,39.171
32.996,39.621
32.922,40.026
32.853,40.381
32.789,40.68
32.73,40.921
32.676,41.103
32.627,41.225
32.581,41.292
32.538,41.305
32.497,41.269
32.459,41.188
32.423,41.069
32.389,40.918
32.356,40.741
32.324,40.545
32.292,40.336
32.26,40.12
32.228,39.901
32.197,39.683
32.166,39.467
32.136,39.256
32.106,39.051
32.077,38.854
32.048,38.665
32.021,38.485
31.995,38.312
31.972,38.148
31.952,37.99
31.934,37.84
31.919,37.694
31.907,37.55
31.899,37.409
31.896,37.267
31.9,37.127
31.914,36.988
31.939,36.856
31.981,36.736
32.043,36.628
32.129,36.529
32.244,36.437
32.393,36.348
32.582,36.259
32.814,36.167
33.092,36.069
33.418,35.963
33.792,35.85
34.213,35.731
34.679,35.608
35.184,35.483
35.724,35.358
36.288,35.236
36.868,35.119
37.454,35.011
38.037,34.913
38.604,34.826
39.145,34.752
39.653,34.69
40.117,34.641
40.534,34.606
40.896,34.583
41.201,34.573
41.447,34.574
41.634,34.583
41.763,34.599
41.837,34.62
41.861,34.644
41.838,34.671
41.775,34.697
41.676,34.721
41.546,34.742
41.392,34.76
41.218,34.775
41.028,34.786
40.826,34.791
40.616,34.792
40.402,34.79
40.185,34.783
39.97,34.774
39.758,34.761
39.549,34.746
39.345,34.729
39.146,34.71
38.952,34.689
38.764,34.667
38.581,34.643
38.401,34.615
38.224,34.584
38.049,34.549
37.876,34.512
37.704,34.473
37.532,34.432
37.361,34.388
37.189,34.342
37.017,34.293
36.845,34.24
36.673,34.183
36.502,34.123
36.331,34.06
36.161,33.995
35.991,33.927
35.825,33.859
35.662,33.79
35.503,33.722
35.351,33.653
35.203,33.585
35.062,33.516
34.93,33.447
34.807,33.378
34.695,33.309
34.594,33.239
34.505,33.166
34.427,33.092
34.36,33.019
34.304,32.948
34.258,32.878
34.224,32.812
34.199,32.75
34.183,32.695
34.178,32.644
34.182,32.599
34.194,32.559
34.213,32.521
34.238,32.487
34.269,32.455
34.304,32.425
34.342,32.396
34.382,32.369
34.423,32.342
34.463,32.315
34.501,32.287
34.535,32.26
34.565,32.236
34.59,32.216
34.609,32.201
34.621,32.195
34.627,32.199
34.625,32.218
34.615,32.254
34.599,32.313
34.578,32.399
34.551,32.518
34.52,32.673
34.485,32.868
34.447,33.104
34.405,33.385
34.36,33.712
34.312,34.086
34.26,34.505
34.204,34.97
34.144,35.475
34.081,36.015
34.015,36.58
33.947,37.159
33.877,37.742
33.806,38.315
33.734,38.866
33.661,39.385
33.589,39.86
33.516,40.284
33.444,40.652
33.373,40.961
33.302,41.209
33.232,41.395
33.162,41.521
33.095,41.589
33.029,41.605
32.965,41.571
32.903,41.495
32.844,41.382
32.785,41.239
32.728,41.074
32.671,40.891
32.616,40.696
32.561,40.494
32.509,40.29
32.46,40.086
32.413,39.883
32.371,39.685
32.333,39.492
32.298,39.304
32.268,39.124
32.242,38.95
32.221,38.783
32.202,38.621
32.186,38.465
32.171,38.31
32.155,38.15
32.14,37.985
32.123,37.816
32.105,37.646
32.086,37.477
32.067,37.312
32.047,37.153
32.026,37
32.005,36.856
31.985,36.719
31.965,36.588
31.948,36.463
31.932,36.344
31.92,36.23
31.91,36.12
31.906,36.012
31.908,35.908
31.922,35.806
31.949,35.706
31.994,35.608
32.061,35.512
32.155,35.417
32.28,35.326
32.444,35.24
32.649,35.16
32.9,35.087
33.201,35.023
33.551,34.968
33.951,34.921
34.4,34.883
34.894,34.852
35.429,34.829
35.995,34.815
36.586,34.808
37.19,34.806
37.798,34.809
38.398,34.816
38.98,34.825
39.533,34.834
40.049,34.843
40.519,34.852
40.937,34.86
41.299,34.867
41.601,34.873
41.841,34.875
42.02,34.875
42.141,34.87
42.206,34.862
42.218,34.851
42.183,34.837
42.107,34.82
41.996,34.8
41.857,34.775
41.694,34.746
41.514,34.713
41.321,34.677
41.118,34.638
40.91,34.597
40.699,34.553
40.486,34.506
40.275,34.458
40.065,34.408
39.859,34.357
39.658,34.306
39.461,34.254
39.269,34.203
39.081,34.153
38.898,34.102
38.719,34.051
38.543,33.999
38.371,33.947
38.202,33.893
38.035,33.838
37.87,33.78
37.708,33.72
37.546,33.658
37.387,33.594
37.227,33.529
37.07,33.463
36.913,33.397
36.757,33.332
36.601,33.269
36.447,33.208
36.294,33.15
36.142,33.096
35.994,33.046
35.849,33.001
35.708,32.958
35.571,32.919
35.44,32.882
35.316,32.846
35.2,32.811
35.092,32.777
34.994,32.744
34.904,32.71
34.824,32.677
34.754,32.644
34.694,32.611
34.645,32.578
34.607,32.544
34.579,32.509
34.561,32.474
34.552,32.439
34.551,32.407
34.557,32.379
34.571,32.355
34.589,32.341
34.612,32.34
34.638,32.356
34.667,32.393
34.698,32.454
34.73,32.543
34.762,32.666
34.792,32.827
34.821,33.03
34.845,33.279
34.864,33.577
34.878,33.927
34.886,34.328
34.887,34.778
34.881,35.274
34.869,35.81
34.849,36.376
34.822,36.964
34.789,37.562
34.75,38.155
34.706,38.733
34.658,39.283
34.605,39.795
34.549,40.258
34.49,40.663
34.426,41.006
34.359,41.284
34.289,41.495
34.215,41.641
34.139,41.723
34.061,41.748
33.981,41.719
33.9,41.642
33.818,41.525
33.737,41.375
33.657,41.199
33.578,41.005
33.501,40.798
33.426,40.584
33.352,40.365
33.28,40.147
33.209,39.932
33.14,39.723
33.073,39.52
33.008,39.325
32.945,39.14
32.885,38.963
32.827,38.796
32.771,38.637
32.718,38.487
32.667,38.344
32.618,38.208
32.571,38.076
32.527,37.946
32.484,37.818
32.444,37.692
32.405,37.567
32.367,37.442
32.33,37.318
32.293,37.193
32.255,37.066
32.217,36.939
32.181,36.808
32.145,36.675
32.112,36.539
32.081,36.402
32.054,36.264
32.029,36.126
32.006,35.99
31.986,35.858
31.967,35.729
31.949,35.606
31.934,35.487
31.92,35.375
31.909,35.271
31.901,35.177
31.898,35.091
31.901,35.015
31.913,34.95
31.937,34.895
31.976,34.85
32.033,34.812
32.112,34.782
32.218,34.76
32.354,34.745
32.526,34.736
32.74,34.733
32.999,34.735
33.305,34.741
33.659,34.749
34.061,34.757
34.508,34.766
34.995,34.776
35.519,34.785
36.069,34.793
36.639,34.798
37.217,34.8
37.794,34.798
38.358,34.793
38.898,34.784
39.404,34.772
39.87,34.756
40.289,34.739
40.658,34.719
40.972,34.697
41.229,34.673
41.429,34.646
41.573,34.615
41.664,34.582
41.704,34.546
41.698,34.506
41.649,34.463
41.563,34.418
41.445,34.369
41.301,34.317
41.138,34.262
40.958,34.204
40.767,34.146
40.567,34.087
40.362,34.028
40.155,33.969
39.946,33.912
39.738,33.855
39.532,33.798
39.329,33.741
39.129,33.684
38.934,33.626
38.743,33.569
38.557,33.512
38.374,33.455
38.195,33.397
38.019,33.338
37.846,33.277
37.675,33.216
37.506,33.154
37.338,33.094
37.172,33.035
37.008,32.978
36.846,32.921
36.685,32.865
36.525,32.81
36.367,32.757
36.21,32.706
36.056,32.658
35.904,32.612
35.756,32.568
35.611,32.526
35.471,32.485
35.336,32.445
35.207,32.407
35.086,32.37
34.972,32.335
34.866,32.301
34.767,32.268
34.677,32.237
34.596,32.21
34.524,32.188
34.461,32.173
34.406,32.169
34.36,32.179
34.323,32.205
34.294,32.251
34.275,32.317
34.265,32.409
34.262,32.53
34.267,32.683
34.278,32.871
34.295,33.097
34.316,33.366
34.341,33.679
34.369,34.037
34.398,34.441
34.426,34.889
34.452,35.376
34.476,35.897
34.497,36.441
34.517,36.999
34.533,37.56
34.547,38.111
34.557,38.643
34.564,39.145
34.567,39.606
34.565,40.018
34.559,40.374
34.547,40.668
34.529,40.892
34.505,41.04
34.476,41.116
34.44,41.127
34.4,41.079
34.353,40.984
34.302,40.85
34.244,40.687
34.182,40.507
34.116,40.315
34.046,40.119
33.973,39.923
33.898,39.73
33.822,39.543
33.747,39.363
33.671,39.192
33.597,39.029
33.524,38.873
33.453,38.723
33.383,38.578
33.316,38.436
33.249,38.297
33.184,38.159
33.12,38.02
33.056,37.882
32.995,37.742
32.936,37.602
32.879,37.461
32.824,37.319
32.772,37.177
32.722,37.034
32.675,36.89
32.63,36.745
32.589,36.6
32.55,36.455
32.514,36.311
32.48,36.168
32.447,36.028
32.417,35.89
32.388,35.756
32.36,35.628
32.334,35.506
32.31,35.391
32.287,35.282
32.265,35.181
32.244,35.087
32.225,35.002
32.208,34.925
32.191,34.856
32.175,34.795
32.16,34.741
32.145,34.694
32.129,34.654
32.115,34.622
32.1,34.596
32.087,34.577
32.074,34.566
32.064,34.562
32.057,34.564
32.054,34.569
32.058,34.578
32.071,34.589
32.095,34.601
32.134,34.613
32.193,34.625
32.277,34.637
32.39,34.648
32.538,34.657
32.727,34.665
32.958,34.67
33.236,34.673
33.56,34.674
33.929,34.672
34.342,34.666
34.796,34.657
35.284,34.648
35.802,34.636
36.34,34.621
36.892,34.601
37.447,34.577
37.996,34.547
38.529,34.512
39.037,34.473
39.511,34.43
39.944,34.384
40.331,34.335
40.667,34.282
40.948,34.226
41.174,34.167
41.345,34.105
41.462,34.042
41.528,33.976
41.546,33.91
41.521,33.843
41.458,33.776
41.36,33.71
41.234,33.645
41.084,33.581
40.913,33.518
40.727,33.456
40.527,33.395
40.317,33.334
40.1,33.274
39.879,33.216
39.656,33.159
39.432,33.103
39.209,33.048
38.987,32.997
38.77,32.948
38.557,32.901
38.348,32.856
38.144,32.812
37.946,32.768
37.754,32.725
37.568,32.683
37.387,32.641
37.211,32.6
37.038,32.56
36.867,32.52
36.697,32.481
36.527,32.442
36.358,32.404
36.188,32.366
36.019,32.33
35.851,32.296
35.685,32.264
35.524,32.234
35.368,32.207
35.218,32.184
35.075,32.168
34.94,32.16
34.813,32.162
34.697,32.178
34.592,32.21
34.499,32.259
34.417,32.33
34.347,32.427
34.289,32.553
34.242,32.714
34.209,32.912
34.188,33.149
34.179,33.43
34.18,33.755
34.19,34.123
34.208,34.531
34.232,34.979
34.263,35.46
34.298,35.971
34.337,36.501
34.378,37.042
34.419,37.582
34.46,38.108
34.5,38.61
34.539,39.075
34.575,39.496
34.608,39.868
34.637,40.185
34.663,40.447
34.684,40.652
34.701,40.801
34.714,40.895
34.722,40.938
34.724,40.933
34.721,40.884
34.712,40.796
34.697,40.674
34.676,40.524
34.648,40.352
34.613,40.164
34.573,39.965
34.526,39.761
34.475,39.555
34.42,39.351
34.361,39.149
34.299,38.95
34.234,38.755
34.167,38.565
34.099,38.381
34.029,38.203
33.959,38.03
33.889,37.863
33.819,37.7
33.748,37.541
33.679,37.385
33.61,37.231
33.542,37.08
33.476,36.932
33.412,36.786
33.351,36.644
33.293,36.504
33.237,36.367
33.182,36.233
33.129,36.101
33.077,35.971
33.025,35.844
32.974,35.722
32.925,35.603
32.878,35.488
32.834,35.377
32.792,35.269
32.751,35.166
32.71,35.067
32.668,34.973
32.624,34.886
32.58,34.806
32.535,34.734
32.493,34.67
32.453,34.612
32.417,34.562
32.385,34.521
32.358,34.488
32.334,34.462
32.316,34.445
32.302,34.435
32.292,34.432
32.286,34.436
32.283,34.445
32.284,34.458
32.288,34.475
32.297,34.494
32.31,34.514
32.331,34.536
32.361,34.557
32.403,34.579
32.461,34.6
32.538,34.619
32.639,34.636
32.77,34.65
32.936,34.662
33.141,34.668
33.389,34.669
33.681,34.664
34.02,34.654
34.404,34.64
34.83,34.621
35.293,34.598
35.788,34.571
36.309,34.539
36.847,34.504
37.394,34.466
37.939,34.427
38.472,34.384
38.986,34.339
39.471,34.292
39.921,34.243
40.328,34.191
40.688,34.137
40.995,34.081
41.247,34.021
41.444,33.958
41.586,33.891
41.674,33.822
41.712,33.753
41.703,33.683
41.652,33.613
41.565,33.545
41.446,33.48
41.302,33.417
41.138,33.358
40.957,33.303
40.765,33.251
40.564,33.204
40.357,33.161
40.147,33.122
39.935,33.085
39.723,33.05
39.511,33.016
39.301,32.983
39.093,32.95
38.889,32.916
38.69,32.882
38.494,32.847
38.303,32.811
38.116,32.772
37.934,32.733
37.756,32.693
37.58,32.653
37.406,32.612
37.233,32.571
37.06,32.531
36.887,32.493
36.715,32.457
36.543,32.423
36.372,32.392
36.202,32.366
36.034,32.346
35.868,32.332
35.706,32.327
35.548,32.331
35.397,32.345
35.252,32.374
35.115,32.419
34.985,32.483
34.865,32.57
34.756,32.681
34.657,32.82
34.569,32.993
34.492,33.203
34.425,33.456
34.369,33.754
34.324,34.099
34.29,34.49
34.265,34.924
34.25,35.397
34.244,35.902
34.246,36.431
34.257,36.974
34.275,37.52
34.3,38.057
34.33,38.576
34.363,39.066
34.397,39.517
34.433,39.924
34.469,40.281
34.504,40.582
34.538,40.825
34.569,41.008
34.596,41.133
34.621,41.202
34.642,41.217
34.659,41.184
34.672,41.107
34.68,40.994
34.682,40.851
34.678,40.684
34.667,40.501
34.65,40.308
34.626,40.109
34.595,39.908
34.559,39.708
34.517,39.511
34.469,39.318
34.415,39.13
34.357,38.948
34.294,38.772
34.227,38.601
34.157,38.435
34.084,38.275
34.009,38.121
33.934,37.969
33.859,37.821
33.784,37.674
33.71,37.53
33.637,37.389
33.564,37.25
33.493,37.113
33.422,36.979
33.353,36.846
33.285,36.715
33.218,36.584
33.153,36.455
33.09,36.328
33.029,36.204
32.969,36.084
32.911,35.966
32.854,35.85
32.8,35.736
32.748,35.624
32.7,35.515
32.656,35.41
32.614,35.31
32.576,35.216
32.541,35.131
32.507,35.053
32.476,34.983
32.446,34.921
32.419,34.866
32.394,34.819
32.371,34.78
32.349,34.748
32.327,34.725
32.306,34.709
32.286,34.699
32.268,34.694
32.254,34.694
32.243,34.697
32.234,34.704
32.228,34.714
32.224,34.727
32.222,34.741
32.22,34.757
32.221,34.771
32.223,34.784
32.23,34.794
32.241,34.801
32.259,34.804
32.288,34.805
32.33,34.802
32.391,34.794
32.476,34.782
32.592,34.766
32.742,34.744
32.934,34.718
33.171,34.688
33.455,34.655
33.789,34.619
34.172,34.581
34.602,34.54
35.075,34.496
35.585,34.449
36.125,34.398
36.687,34.345
37.261,34.288
37.837,34.23
38.406,34.171
38.956,34.11
39.479,34.048
39.967,33.984
40.412,33.919
40.807,33.855
41.149,33.792
41.435,33.731
41.665,33.67
41.838,33.61
41.956,33.552
42.022,33.493
42.041,33.435
42.018,33.377
41.957,33.319
41.863,33.261
41.742,33.205
41.599,33.149
41.438,33.095
41.263,33.041
41.079,32.989
40.889,32.938
40.695,32.89
40.5,32.845
40.306,32.802
40.116,32.762
39.928,32.724
39.745,32.688
39.566,32.653
39.389,32.62
39.214,32.587
39.042,32.554
38.873,32.522
38.705,32.492
38.54,32.461
38.377,32.431
38.215,32.4
38.053,32.369
37.893,32.339
37.733,32.311
37.575,32.287
37.416,32.269
37.257,32.258
37.097,32.256
36.939,32.265
36.781,32.286
36.625,32.322
36.471,32.376
36.319,32.451
36.17,32.55
36.025,32.679
35.884,32.84
35.749,33.039
35.618,33.279
35.493,33.564
35.376,33.896
35.267,34.275
35.168,34.702
35.079,35.171
35.001,35.678
34.935,36.215
34.879,36.771
34.834,37.338
34.799,37.903
34.773,38.455
34.756,38.98
34.745,39.47
34.741,39.912
34.743,40.299
34.751,40.623
34.764,40.883
34.783,41.078
34.806,41.209
34.831,41.279
34.857,41.291
34.882,41.252
34.907,41.17
34.929,41.05
34.946,40.901
34.959,40.729
34.966,40.541
34.966,40.344
34.962,40.143
34.951,39.943
34.935,39.746
34.913,39.555
34.886,39.371
34.853,39.196
34.815,39.028
34.772,38.868
34.723,38.716
34.669,38.573
34.611,38.436
34.548,38.304
34.482,38.174
34.413,38.046
34.343,37.919
34.271,37.793
34.197,37.668
34.124,37.541
34.052,37.415
33.981,37.288
33.912,37.163
33.844,37.04
33.776,36.919
33.709,36.801
33.642,36.686
33.576,36.572
33.51,36.46
33.444,36.351
33.378,36.244
33.312,36.139
33.247,36.035
33.184,35.932
33.122,35.831
33.061,35.734
33.002,35.64
32.944,35.55
32.888,35.466
32.833,35.388
32.781,35.316
32.732,35.25
32.686,35.191
32.644,35.138
32.604,35.092
32.567,35.051
32.533,35.015
32.501,34.985
32.47,34.96
32.442,34.94
32.416,34.925
32.391,34.914
32.367,34.908
32.344,34.904
32.321,34.903
32.298,34.903
32.277,34.903
32.257,34.902
32.239,34.902
32.225,34.9
32.216,34.898
32.211,34.894
32.209,34.887
32.212,34.879
32.22,34.868
32.235,34.854
32.26,34.838
32.296,34.82
32.348,34.799
32.419,34.773
32.513,34.743
32.636,34.708
32.794,34.669
32.99,34.626
33.229,34.581
33.513,34.534
33.844,34.486
34.221,34.437
34.642,34.388
35.102,34.339
35.595,34.288
36.116,34.236
36.656,34.183
37.206,34.129
37.758,34.075
38.302,34.019
38.829,33.961
39.33,33.901
39.796,33.841
40.221,33.78
40.598,33.719
40.923,33.658
41.193,33.599
41.408,33.54
41.568,33.482
41.675,33.425
41.73,33.371
41.738,33.317
41.704,33.264
41.631,33.211
41.526,33.158
41.393,33.106
41.237,33.053
41.063,33
40.875,32.947
40.679,32.896
40.475,32.848
40.269,32.803
40.062,32.761
39.856,32.723
39.654,32.687
39.456,32.653
39.264,32.621
39.081,32.59
38.91,32.56
38.75,32.532
38.599,32.505
38.456,32.477
38.318,32.447
38.181,32.418
38.044,32.389
37.905,32.362
37.761,32.338
37.611,32.318
37.455,32.303
37.294,32.296
37.128,32.299
36.956,32.317
36.781,32.352
36.602,32.408
36.424,32.49
36.246,32.601
36.073,32.745
35.904,32.926
35.741,33.15
35.585,33.422
35.437,33.746
35.297,34.121
35.166,34.549
35.044,35.024
34.932,35.541
34.829,36.089
34.736,36.657
34.655,37.231
34.584,37.799
34.526,38.347
34.478,38.864
34.442,39.339
34.416,39.765
34.399,40.135
34.391,40.444
34.39,40.688
34.394,40.868
34.403,40.983
34.414,41.038
34.429,41.037
34.446,40.987
34.466,40.894
34.488,40.767
34.511,40.614
34.534,40.443
34.556,40.26
34.576,40.07
34.595,39.878
34.612,39.689
34.625,39.504
34.634,39.327
34.638,39.158
34.636,38.998
34.629,38.847
34.615,38.706
34.595,38.571
34.568,38.443
34.535,38.32
34.496,38.202
34.453,38.085
34.405,37.97
34.355,37.856
34.302,37.742
34.246,37.629
34.189,37.517
34.131,37.404
34.071,37.29
34.01,37.175
33.946,37.059
33.88,36.941
33.812,36.822
33.743,36.702
33.672,36.583
33.601,36.464
33.529,36.345
33.458,36.228
33.386,36.115
33.315,36.005
33.245,35.898
33.177,35.795
33.11,35.696
33.046,35.602
32.985,35.512
32.926,35.426
32.872,35.343
32.821,35.265
32.775,35.191
32.732,35.121
32.692,35.057
32.655,34.999
32.62,34.946
32.587,34.901
32.556,34.863
32.526,34.832
32.497,34.809
32.468,34.793
32.44,34.783
32.411,34.777
32.383,34.776
32.356,34.778
32.331,34.783
32.308,34.79
32.286,34.798
32.266,34.805
32.247,34.812
32.228,34.817
32.211,34.82
32.194,34.821
32.179,34.817
32.166,34.81
32.156,34.798
32.148,34.783
32.144,34.763
32.144,34.738
32.149,34.711
32.162,34.679
32.185,34.642
32.222,34.603
32.275,34.561
32.348,34.517
32.444,34.472
32.568,34.424
32.725,34.374
32.918,34.324
33.152,34.274
33.428,34.224
33.746,34.174
34.108,34.125
34.509,34.077
34.948,34.028
35.418,33.979
35.914,33.928
36.429,33.875
36.953,33.821
37.479,33.765
37.996,33.707
38.497,33.649
38.973,33.59
39.417,33.531
39.823,33.472
40.186,33.413
40.503,33.356
40.77,33.299
40.986,33.244
41.152,33.191
41.267,33.138
41.336,33.087
41.359,33.036
41.341,32.987
41.284,32.939
41.193,32.891
41.073,32.845
40.928,32.799
40.763,32.754
40.582,32.709
40.389,32.664
40.187,32.621
39.979,32.58
39.768,32.541
39.556,32.504
39.347,32.47
39.14,32.438
38.937,32.409
38.737,32.38
38.542,32.352
38.351,32.324
38.165,32.297
37.981,32.27
37.8,32.246
37.62,32.225
37.439,32.211
37.26,32.208
37.082,32.217
36.906,32.242
36.73,32.287
36.555,32.356
36.382,32.452
36.213,32.579
36.049,32.738
35.891,32.935
35.738,33.173
35.592,33.455
35.452,33.782
35.318,34.157
35.193,34.577
35.077,35.039
34.969,35.534
34.871,36.054
34.783,36.589
34.704,37.125
34.636,37.653
34.579,38.158
34.531,38.63
34.492,39.06
34.461,39.44
34.439,39.766
34.423,40.032
34.415,40.238
34.413,40.383
34.416,40.471
34.425,40.503
34.439,40.484
34.457,40.421
34.479,40.32
34.503,40.19
34.53,40.039
34.557,39.871
34.585,39.692
34.613,39.506
34.641,39.318
34.668,39.13
34.693,38.945
34.714,38.765
34.732,38.594
34.746,38.432
34.756,38.279
34.761,38.133
34.759,37.994
34.751,37.859
34.736,37.729
34.715,37.603
34.689,37.481
34.657,37.361
34.621,37.246
34.58,37.133
34.537,37.022
34.494,36.912
34.449,36.801
34.403,36.688
34.354,36.574
34.302,36.458
34.246,36.341
34.185,36.226
34.119,36.113
34.049,36
33.977,35.889
33.902,35.779
33.825,35.671
33.747,35.565
33.668,35.464
33.59,35.367
33.514,35.275
33.44,35.19
33.369,35.112
33.301,35.039
33.239,34.971
33.181,34.909
33.127,34.853
33.078,34.804
33.032,34.762
32.988,34.726
32.947,34.697
32.908,34.673
32.871,34.655
32.836,34.642
32.803,34.634
32.771,34.631
32.74,34.632
32.71,34.637
32.681,34.643
32.652,34.651
32.623,34.659
32.595,34.667
32.568,34.674
32.54,34.68
32.514,34.685
32.488,34.688
32.464,34.69
32.442,34.69
32.422,34.688
32.404,34.683
32.389,34.676
32.375,34.665
32.364,34.651
32.356,34.632
32.35,34.61
32.348,34.584
32.352,34.555
32.364,34.523
32.387,34.49
32.424,34.455
32.479,34.419
32.558,34.383
32.664,34.345
32.803,34.305
32.979,34.265
33.195,34.221
33.453,34.173
33.753,34.121
34.097,34.065
34.481,34.006
34.904,33.946
35.359,33.884
35.841,33.821
36.343,33.759
36.857,33.696
37.375,33.636
37.889,33.579
38.39,33.527
38.87,33.478
39.321,33.434
39.735,33.393
40.108,33.354
40.434,33.317
40.712,33.281
40.941,33.246
41.12,33.211
41.249,33.176
41.331,33.14
41.367,33.103
41.361,33.065
41.316,33.026
41.236,32.985
41.126,32.943
40.989,32.901
40.83,32.857
40.655,32.813
40.466,32.768
40.267,32.724
40.063,32.681
39.855,32.642
39.647,32.606
39.44,32.572
39.235,32.541
39.032,32.512
38.834,32.488
38.64,32.467
38.452,32.453
38.27,32.446
38.094,32.449
37.923,32.463
37.756,32.491
37.592,32.538
37.432,32.605
37.273,32.695
37.115,32.81
36.957,32.955
36.8,33.132
36.642,33.346
36.485,33.601
36.327,33.898
36.169,34.24
36.011,34.625
35.856,35.049
35.704,35.508
35.556,35.992
35.414,36.492
35.277,36.997
35.147,37.494
35.025,37.972
34.912,38.42
34.809,38.83
34.718,39.191
34.638,39.498
34.572,39.746
34.518,39.933
34.476,40.059
34.447,40.127
34.428,40.141
34.419,40.106
34.42,40.028
34.428,39.913
34.444,39.768
34.467,39.601
34.497,39.418
34.531,39.226
34.567,39.03
34.604,38.835
34.642,38.642
34.679,38.455
34.714,38.276
34.746,38.107
34.772,37.948
34.792,37.798
34.806,37.656
34.815,37.523
34.818,37.398
34.816,37.278
34.808,37.163
34.794,37.051
34.775,36.943
34.75,36.837
34.721,36.732
34.687,36.629
34.648,36.527
34.605,36.424
34.556,36.321
34.504,36.216
34.449,36.11
34.392,36.003
34.333,35.895
34.273,35.787
34.211,35.678
34.148,35.571
34.087,35.464
34.027,35.359
33.969,35.258
33.911,35.16
33.852,35.067
33.792,34.981
33.731,34.902
33.668,34.831
33.604,34.766
33.54,34.709
33.475,34.659
33.41,34.616
33.345,34.579
33.279,34.55
33.215,34.528
33.15,34.513
33.086,34.504
33.024,34.5
32.964,34.5
32.907,34.503
32.852,34.51
32.8,34.521
32.751,34.533
32.705,34.547
32.662,34.562
32.624,34.577
32.589,34.59
32.557,34.602
32.528,34.611
32.502,34.618
32.479,34.623
32.457,34.627
32.437,34.628
32.417,34.626
32.398,34.621
32.381,34.612
32.365,34.601
32.349,34.586
32.333,34.569
32.317,34.55
32.301,34.528
32.285,34.504
32.27,34.476
32.256,34.446
32.244,34.413
32.233,34.378
32.225,34.34
32.22,34.301
32.22,34.261
32.227,34.219
32.243,34.175
32.271,34.129
32.312,34.082
32.373,34.034
32.455,33.985
32.564,33.937
32.704,33.888
32.88,33.84
33.096,33.792
33.355,33.745
33.659,33.698
34.008,33.653
34.401,33.61
34.834,33.569
35.302,33.528
35.8,33.487
36.32,33.446
36.855,33.405
37.397,33.364
37.935,33.324
38.464,33.284
38.973,33.245
39.454,33.206
39.901,33.168
40.306,33.129
40.665,33.092
40.973,33.056
41.229,33.02
41.432,32.985
41.582,32.95
41.68,32.915
41.73,32.879
41.734,32.843
41.697,32.808
41.624,32.773
41.521,32.74
41.391,32.711
41.24,32.686
41.072,32.665
40.892,32.651
40.703,32.644
40.51,32.649
40.314,32.666
40.117,32.7
39.923,32.753
39.732,32.829
39.546,32.93
39.365,33.061
39.189,33.227
39.019,33.431
38.854,33.679
38.694,33.973
38.537,34.313
38.383,34.697
38.233,35.121
38.084,35.581
37.937,36.065
37.791,36.565
37.645,37.067
37.501,37.559
37.357,38.032
37.213,38.47
37.07,38.856
36.926,39.181
36.782,39.44
36.637,39.636
36.493,39.771
36.35,39.851
36.209,39.88
36.069,39.868
35.932,39.819
35.798,39.742
35.668,39.642
35.544,39.524
35.426,39.396
35.315,39.261
35.212,39.122
35.118,38.982
35.035,38.842
34.965,38.705
34.906,38.572
34.858,38.441
34.82,38.315
34.791,38.192
34.772,38.072
34.76,37.956
34.755,37.842
34.756,37.732
34.763,37.626
34.775,37.523
34.79,37.421
34.808,37.32
34.829,37.217
34.849,37.115
34.869,37.012
34.886,36.908
34.899,36.802
34.91,36.694
34.916,36.585
34.917,36.476
34.912,36.365
34.9,36.255
34.882,36.145
34.859,36.035
34.83,35.927
34.797,35.82
34.758,35.716
34.715,35.614
34.669,35.516
34.619,35.423
34.567,35.333
34.514,35.248
34.458,35.168
34.402,35.093
34.344,35.024
34.285,34.958
34.224,34.898
34.162,34.844
34.097,34.797
34.03,34.758
33.96,34.725
33.888,34.701
33.815,34.685
33.741,34.676
33.667,34.674
33.594,34.677
33.521,34.686
33.448,34.698
33.378,34.713
33.311,34.728
33.246,34.744
33.185,34.759
33.126,34.774
33.071,34.787
33.02,34.797
32.972,34.806
32.927,34.815
32.885,34.823
32.845,34.829
32.808,34.832
32.773,34.831
32.739,34.825
32.706,34.813
32.673,34.794
32.639,34.769
32.606,34.738
32.572,34.702
32.539,34.662
32.507,34.62
32.476,34.576
32.446,34.532
32.418,34.487
32.391,34.441
32.366,34.394
32.343,34.347
32.324,34.3
32.308,34.255
32.294,34.21
32.283,34.165
32.273,34.119
32.264,34.074
32.256,34.027
32.249,33.981
32.243,33.933
32.239,33.887
32.235,33.84
32.233,33.792
32.233,33.745
32.233,33.696
32.236,33.648
32.242,33.601
32.252,33.554
32.269,33.507
32.295,33.46
32.332,33.414
32.385,33.367
32.455,33.318
32.55,33.269
32.673,33.221
32.83,33.172
33.025,33.124
33.263,33.076
33.545,33.027
33.871,32.979
34.241,32.933
34.651,32.887
35.098,32.843
35.577,32.8
36.08,32.76
36.6,32.722
37.129,32.686
37.658,32.652
38.179,32.62
38.682,32.592
39.162,32.568
39.611,32.55
40.021,32.54
40.388,32.538
40.709,32.547
40.979,32.57
41.197,32.61
41.363,32.669
41.477,32.752
41.541,32.863
41.559,33.005
41.535,33.183
41.474,33.402
41.381,33.664
41.261,33.972
41.119,34.327
40.96,34.726
40.789,35.164
40.608,35.634
40.421,36.125
40.231,36.626
40.042,37.126
39.853,37.614
39.668,38.079
39.485,38.511
39.306,38.901
39.131,39.245
38.96,39.537
38.793,39.774
38.628,39.957
38.467,40.083
38.307,40.156
38.15,40.179
37.995,40.157
37.842,40.095
37.69,40
37.538,39.879
37.386,39.738
37.235,39.584
37.084,39.42
36.934,39.251
36.783,39.078
36.633,38.907
36.483,38.739
36.333,38.575
36.185,38.418
36.04,38.268
35.898,38.127
35.761,37.994
35.629,37.87
35.503,37.753
35.383,37.642
35.27,37.536
35.165,37.435
35.067,37.337
34.977,37.242
34.896,37.149
34.823,37.059
34.76,36.97
34.706,36.88
34.662,36.789
34.628,36.697
34.604,36.602
34.59,36.506
34.583,36.407
34.582,36.306
34.588,36.205
34.597,36.104
34.61,36.003
34.625,35.902
34.641,35.804
34.657,35.707
34.673,35.614
34.689,35.525
34.706,35.442
34.721,35.365
34.735,35.295
34.745,35.231
34.751,35.173
34.752,35.122
34.748,35.078
34.74,35.04
34.726,35.008
34.706,34.982
34.679,34.96
34.647,34.945
34.61,34.934
34.566,34.927
34.518,34.924
34.463,34.925
34.403,34.931
34.337,34.943
34.267,34.958
34.192,34.976
34.115,34.994
34.037,35.012
33.958,35.029
33.879,35.042
33.802,35.053
33.728,35.06
33.657,35.062
33.591,35.057
33.527,35.045
33.466,35.027
33.406,35.004
33.348,34.977
33.292,34.947
33.237,34.913
33.182,34.878
33.129,34.842
33.077,34.805
33.026,34.769
32.977,34.732
32.929,34.695
32.881,34.658
32.836,34.619
32.791,34.58
32.749,34.54
32.71,34.5
32.672,34.459
32.637,34.419
32.602,34.377
32.57,34.336
32.538,34.293
32.509,34.25
32.48,34.204
32.454,34.158
32.429,34.111
32.405,34.064
32.382,34.016
32.36,33.969
32.339,33.92
32.317,33.87
32.297,33.819
32.278,33.768
32.26,33.716
32.244,33.662
32.23,33.607
32.219,33.552
32.211,33.497
32.205,33.443
32.201,33.39
32.199,33.339
32.199,33.288
32.201,33.239
32.204,33.191
32.207,33.145
32.211,33.101
32.213,33.06
32.215,33.02
32.216,32.981
32.216,32.945
32.218,32.909
32.222,32.875
32.231,32.841
32.246,32.809
32.27,32.779
32.305,32.752
32.356,32.729
32.427,32.712
32.521,32.703
32.643,32.703
32.798,32.715
32.99,32.742
33.22,32.787
33.491,32.854
33.804,32.946
34.156,33.066
34.545,33.22
34.968,33.412
35.42,33.647
35.893,33.926
36.381,34.252
36.877,34.621
37.371,35.031
37.857,35.477
38.326,35.948
38.77,36.435
39.185,36.926
39.563,37.408
39.9,37.872
40.194,38.305
40.441,38.699
40.641,39.046
40.794,39.341
40.901,39.58
40.963,39.761
40.984,39.886
40.967,39.956
40.915,39.976
40.833,39.95
40.725,39.884
40.594,39.783
40.444,39.655
40.278,39.506
40.099,39.342
39.911,39.169
39.714,38.991
39.513,38.814
39.31,38.642
39.106,38.477
38.903,38.321
38.701,38.176
38.502,38.043
38.308,37.921
38.12,37.809
37.937,37.705
37.76,37.608
37.587,37.518
37.418,37.431
37.253,37.348
37.091,37.265
36.932,37.182
36.774,37.097
36.618,37.009
36.465,36.918
36.313,36.823
36.164,36.726
36.017,36.626
35.871,36.526
35.728,36.425
35.588,36.324
35.451,36.222
35.319,36.121
35.192,36.021
35.072,35.923
34.957,35.826
34.85,35.733
34.751,35.642
34.662,35.555
34.583,35.47
34.514,35.388
34.454,35.311
34.404,35.239
34.363,35.174
34.333,35.116
34.312,35.064
34.3,35.018
34.295,34.977
34.295,34.94
34.301,34.903
34.313,34.866
34.329,34.829
34.35,34.795
34.374,34.764
34.399,34.738
34.425,34.715
34.452,34.696
34.478,34.683
34.504,34.675
34.528,34.673
34.549,34.677
34.568,34.687
34.584,34.702
34.596,34.719
34.605,34.737
34.61,34.756
34.608,34.774
34.6,34.79
34.585,34.804
34.563,34.814
34.536,34.822
34.503,34.824
34.464,34.82
34.421,34.811
34.375,34.797
34.326,34.778
34.274,34.758
34.222,34.735
34.168,34.711
34.113,34.685
34.057,34.658
34,34.627
33.943,34.593
33.885,34.555
33.827,34.515
33.77,34.474
33.713,34.431
33.657,34.386
33.602,34.339
33.549,34.293
33.496,34.245
33.444,34.197
33.393,34.149
33.343,34.102
33.295,34.055
33.248,34.007
33.203,33.958
33.161,33.908
33.12,33.857
33.081,33.807
33.043,33.756
33.008,33.705
32.974,33.654
32.942,33.603
32.91,33.552
32.878,33.501
32.847,33.451
32.817,33.401
32.787,33.353
32.759,33.307
32.733,33.263
32.708,33.221
32.685,33.181
32.663,33.142
32.642,33.104
32.623,33.067
32.604,33.031
32.589,32.997
32.575,32.966
32.564,32.941
32.554,32.923
32.545,32.909
32.537,32.899
32.531,32.891
32.525,32.881
32.521,32.867
32.517,32.851
32.513,32.831
32.508,32.81
32.502,32.789
32.495,32.772
32.49,32.764
32.487,32.769
32.49,32.792
32.501,32.838
32.521,32.909
32.553,33.012
32.6,33.151
32.665,33.329
32.752,33.552
32.865,33.822
33.008,34.14
33.183,34.503
33.395,34.907
33.644,35.347
33.932,35.813
34.258,36.297
34.62,36.787
35.015,37.271
35.436,37.736
35.88,38.173
36.338,38.571
36.803,38.922
37.269,39.219
37.727,39.46
38.169,39.643
38.59,39.768
38.983,39.838
39.344,39.856
39.668,39.828
39.951,39.758
40.191,39.654
40.386,39.522
40.537,39.368
40.644,39.198
40.708,39.02
40.733,38.839
40.72,38.659
40.673,38.482
40.596,38.311
40.492,38.148
40.365,37.993
40.217,37.848
40.052,37.712
39.873,37.584
39.685,37.463
39.49,37.348
39.291,37.237
39.089,37.129
38.888,37.025
38.688,36.923
38.49,36.822
38.294,36.721
38.101,36.621
37.912,36.52
37.726,36.42
37.543,36.32
37.363,36.219
37.187,36.119
37.012,36.019
36.84,35.921
36.671,35.825
36.505,35.736
36.341,35.659
36.179,35.597
36.02,35.546
35.864,35.503
35.712,35.465
35.564,35.427
35.42,35.387
35.28,35.341
35.145,35.288
35.016,35.229
34.893,35.165
34.777,35.097
34.67,35.027
34.571,34.956
34.481,34.887
34.401,34.822
34.333,34.762
34.274,34.709
34.226,34.663
34.188,34.626
34.159,34.599
34.139,34.58
34.129,34.57
34.129,34.568
34.136,34.573
34.151,34.584
34.171,34.601
34.197,34.62
34.227,34.642
34.26,34.665
34.294,34.687
34.328,34.707
34.361,34.724
34.392,34.737
34.421,34.748
34.447,34.756
34.469,34.761
34.487,34.763
34.499,34.762
34.506,34.759
34.507,34.753
34.503,34.743
34.495,34.73
34.482,34.713
34.466,34.694
34.446,34.672
34.422,34.647
34.396,34.62
34.367,34.59
34.334,34.558
34.299,34.524
34.26,34.486
34.218,34.447
34.173,34.407
34.126,34.363
34.079,34.317
34.03,34.269
33.981,34.219
33.93,34.169
33.878,34.118
33.825,34.068
33.77,34.018
33.715,33.968
33.66,33.919
33.606,33.87
33.553,33.822
33.5,33.773
33.449,33.726
33.398,33.68
33.348,33.634
33.299,33.589
33.25,33.543
33.201,33.498
33.154,33.453
33.106,33.409
33.06,33.367
33.014,33.332
32.971,33.302
32.931,33.276
32.893,33.251
32.859,33.227
32.827,33.201
32.799,33.174
32.773,33.144
32.75,33.11
32.728,33.073
32.707,33.032
32.686,32.988
32.666,32.943
32.646,32.897
32.626,32.854
32.606,32.813
32.589,32.778
32.572,32.747
32.557,32.724
32.543,32.71
32.53,32.708
32.517,32.719
32.505,32.748
32.494,32.796
32.483,32.868
32.472,32.967
32.461,33.096
32.452,33.26
32.444,33.464
32.441,33.712
32.443,34.006
32.452,34.344
32.472,34.724
32.504,35.14
32.552,35.585
32.618,36.05
32.707,36.522
32.82,36.993
32.963,37.45
33.136,37.884
33.345,38.284
33.589,38.644
33.871,38.955
34.19,39.215
34.547,39.42
34.937,39.569
35.359,39.662
35.805,39.702
36.271,39.694
36.749,39.643
37.232,39.555
37.71,39.437
38.178,39.295
38.626,39.134
39.049,38.961
39.44,38.779
39.793,38.594
40.107,38.408
40.376,38.227
40.6,38.052
40.777,37.884
40.908,37.724
40.994,37.574
41.036,37.433
41.038,37.302
41.004,37.179
40.936,37.064
40.838,36.956
40.716,36.854
40.572,36.757
40.413,36.662
40.241,36.57
40.059,36.477
39.872,36.385
39.682,36.293
39.492,36.2
39.302,36.107
39.115,36.013
38.929,35.917
38.747,35.819
38.568,35.719
38.394,35.62
38.225,35.522
38.06,35.425
37.897,35.331
37.738,35.238
37.581,35.149
37.427,35.064
37.274,34.983
37.123,34.907
36.971,34.836
36.82,34.769
36.669,34.707
36.518,34.651
36.369,34.601
36.22,34.559
36.072,34.525
35.926,34.498
35.783,34.479
35.643,34.469
35.508,34.467
35.379,34.474
35.254,34.488
35.136,34.509
35.025,34.537
34.923,34.57
34.828,34.609
34.741,34.65
34.662,34.691
34.591,34.732
34.529,34.771
34.476,34.805
34.431,34.836
34.395,34.86
34.368,34.879
34.35,34.892
34.339,34.899
34.337,34.899
34.343,34.894
34.355,34.885
34.373,34.871
34.394,34.853
34.419,34.832
34.444,34.809
34.469,34.783
34.491,34.756
34.511,34.728
34.527,34.696
34.538,34.663
34.547,34.63
34.552,34.597
34.553,34.564
34.552,34.53
34.547,34.495
34.539,34.459
34.53,34.422
34.517,34.383
34.501,34.341
34.48,34.296
34.455,34.249
34.426,34.2
34.393,34.149
34.358,34.097
34.32,34.045
34.28,33.992
34.239,33.936
34.196,33.878
34.152,33.817
34.105,33.756
34.058,33.694
34.008,33.634
33.958,33.576
33.905,33.523
33.85,33.475
33.793,33.432
33.736,33.393
33.677,33.357
33.618,33.324
33.56,33.292
33.501,33.261
33.445,33.229
33.39,33.196
33.338,33.162
33.289,33.128
33.242,33.092
33.197,33.056
33.154,33.019
33.112,32.984
33.073,32.949
33.035,32.917
33,32.889
32.966,32.867
32.935,32.851
32.905,32.844
32.877,32.846
32.851,32.86
32.825,32.887
32.801,32.93
32.776,32.991
32.751,33.074
32.724,33.182
32.697,33.32
32.67,33.492
32.644,33.703
32.62,33.956
32.598,34.253
32.579,34.593
32.562,34.974
32.548,35.391
32.536,35.836
32.526,36.301
32.518,36.773
32.512,37.242
32.506,37.694
32.501,38.121
32.497,38.513
32.493,38.863
32.492,39.166
32.495,39.416
32.503,39.614
32.519,39.757
32.546,39.85
32.586,39.893
32.644,39.891
32.72,39.846
32.82,39.765
32.947,39.654
33.104,39.518
33.296,39.364
33.526,39.198
33.796,39.025
34.106,38.849
34.455,38.673
34.841,38.499
35.259,38.33
35.706,38.169
36.173,38.018
36.654,37.876
37.14,37.743
37.624,37.62
38.098,37.504
38.554,37.394
38.984,37.288
39.382,37.186
39.742,37.087
40.061,36.99
40.336,36.894
40.564,36.799
40.745,36.705
40.88,36.61
40.969,36.516
41.015,36.42
41.02,36.325
40.987,36.23
40.92,36.136
40.824,36.044
40.703,35.954
40.56,35.866
40.398,35.78
40.223,35.697
40.038,35.616
39.846,35.537
39.65,35.46
39.451,35.387
39.252,35.316
39.055,35.247
38.861,35.18
38.671,35.114
38.485,35.049
38.303,34.985
38.123,34.923
37.949,34.865
37.779,34.814
37.616,34.77
37.457,34.736
37.303,34.711
37.154,34.696
37.008,34.688
36.865,34.689
36.724,34.698
36.585,34.712
36.447,34.732
36.309,34.756
36.172,34.782
36.035,34.809
35.899,34.835
35.765,34.86
35.633,34.882
35.505,34.9
35.381,34.914
35.261,34.923
35.147,34.926
35.038,34.925
34.936,34.919
34.841,34.908
34.754,34.892
34.675,34.874
34.605,34.852
34.544,34.827
34.491,34.801
34.446,34.772
34.409,34.742
34.38,34.711
34.358,34.679
34.34,34.646
34.328,34.614
34.32,34.58
34.317,34.546
34.319,34.51
34.327,34.472
34.338,34.432
34.354,34.391
34.375,34.349
34.4,34.305
34.427,34.259
34.457,34.213
34.487,34.165
34.515,34.116
34.542,34.066
34.566,34.015
34.587,33.963
34.604,33.911
34.614,33.858
34.618,33.806
34.615,33.755
34.603,33.702
34.583,33.65
34.556,33.597
34.523,33.545
34.483,33.493
34.438,33.442
34.388,33.392
34.335,33.342
34.28,33.294
34.224,33.248
34.166,33.204
34.109,33.162
34.053,33.121
33.997,33.081
33.941,33.044
33.885,33.006
33.83,32.969
33.775,32.932
33.721,32.894
33.667,32.857
33.614,32.82
33.561,32.785
33.509,32.753
33.457,32.727
33.406,32.709
33.358,32.703
33.313,32.712
33.27,32.741
33.229,32.791
33.189,32.868
33.151,32.973
33.114,33.114
33.077,33.293
33.041,33.515
33.005,33.782
32.97,34.095
32.936,34.453
32.903,34.856
32.872,35.296
32.842,35.767
32.815,36.257
32.789,36.757
32.765,37.253
32.742,37.733
32.722,38.185
32.703,38.599
32.685,38.966
32.669,39.28
32.653,39.536
32.638,39.732
32.622,39.869
32.607,39.951
32.593,39.981
32.579,39.965
32.566,39.907
32.554,39.814
32.543,39.694
32.533,39.552
32.522,39.396
32.513,39.231
32.505,39.062
32.5,38.894
32.499,38.73
32.503,38.572
32.516,38.421
32.539,38.278
32.576,38.142
32.63,38.012
32.704,37.888
32.801,37.769
32.925,37.656
33.079,37.548
33.267,37.446
33.491,37.349
33.753,37.256
34.054,37.166
34.392,37.079
34.765,36.994
35.167,36.909
35.592,36.824
36.036,36.739
36.491,36.654
36.949,36.569
37.403,36.482
37.844,36.394
38.268,36.305
38.666,36.215
39.033,36.125
39.366,36.034
39.661,35.946
39.915,35.86
40.126,35.777
40.295,35.695
40.423,35.616
40.509,35.538
40.557,35.463
40.567,35.391
40.542,35.324
40.487,35.261
40.403,35.203
40.296,35.151
40.169,35.104
40.025,35.062
39.866,35.026
39.697,34.996
39.52,34.972
39.337,34.955
39.151,34.943
38.962,34.935
38.773,34.931
38.585,34.931
38.398,34.933
38.212,34.938
38.03,34.947
37.85,34.958
37.673,34.97
37.5,34.983
37.331,34.996
37.168,35.009
37.008,35.023
36.853,35.036
36.701,35.049
36.553,35.062
36.407,35.072
36.265,35.08
36.125,35.084
35.987,35.082
35.851,35.075
35.718,35.064
35.587,35.048
35.46,35.029
35.335,35.005
35.214,34.978
35.097,34.946
34.986,34.899
34.881,34.831
34.782,34.743
34.692,34.641
34.61,34.531
34.537,34.421
34.474,34.314
34.422,34.215
34.381,34.13
34.348,34.059
34.323,34.003
34.304,33.962
34.292,33.934
34.284,33.918
34.282,33.911
34.284,33.91
34.29,33.911
34.299,33.912
34.311,33.912
34.326,33.909
34.345,33.902
34.366,33.889
34.388,33.871
34.41,33.846
34.432,33.814
34.452,33.776
34.469,33.733
34.483,33.689
34.494,33.643
34.5,33.597
34.503,33.549
34.502,33.501
34.497,33.452
34.49,33.403
34.48,33.354
34.466,33.306
34.45,33.258
34.431,33.211
34.409,33.166
34.383,33.122
34.354,33.082
34.322,33.046
34.287,33.016
34.248,32.993
34.207,32.976
34.164,32.967
34.118,32.968
34.07,32.981
34.02,33.008
33.969,33.053
33.916,33.121
33.862,33.218
33.807,33.349
33.753,33.518
33.7,33.732
33.648,33.992
33.597,34.3
33.55,34.654
33.507,35.051
33.468,35.483
33.433,35.943
33.4,36.419
33.37,36.898
33.341,37.368
33.312,37.82
33.282,38.242
33.251,38.624
33.218,38.958
33.183,39.24
33.148,39.466
33.113,39.634
33.078,39.746
33.044,39.803
33.01,39.811
32.978,39.774
32.946,39.698
32.917,39.592
32.891,39.461
32.867,39.313
32.845,39.154
32.824,38.99
32.805,38.823
32.786,38.659
32.768,38.499
32.75,38.345
32.733,38.198
32.717,38.06
32.703,37.929
32.69,37.806
32.68,37.691
32.672,37.582
32.667,37.479
32.665,37.381
32.665,37.286
32.666,37.195
32.669,37.105
32.675,37.017
32.684,36.929
32.7,36.843
32.723,36.756
32.758,36.669
32.806,36.582
32.871,36.494
32.956,36.407
33.065,36.32
33.202,36.233
33.369,36.146
33.57,36.059
33.805,35.974
34.078,35.889
34.386,35.806
34.729,35.725
35.101,35.644
35.499,35.565
35.915,35.488
36.343,35.413
36.776,35.34
37.207,35.27
37.628,35.203
38.032,35.139
38.414,35.079
38.767,35.022
39.089,34.969
39.376,34.922
39.625,34.879
39.836,34.842
40.007,34.812
40.138,34.788
40.229,34.771
40.282,34.761
40.297,34.758
40.277,34.761
40.225,34.771
40.145,34.788
40.039,34.809
39.911,34.834
39.765,34.861
39.604,34.888
39.43,34.914
39.248,34.938
39.059,34.958
38.866,34.973
38.671,34.984
38.476,34.988
38.282,34.982
38.089,34.966
37.898,34.94
37.71,34.905
37.526,34.865
37.345,34.822
37.167,34.778
36.992,34.735
36.82,34.694
36.651,34.654
36.487,34.619
36.327,34.587
36.17,34.56
36.016,34.536
35.865,34.513
35.718,34.492
35.574,34.471
35.434,34.451
35.298,34.428
35.167,34.403
35.039,34.375
34.917,34.343
34.799,34.308
34.688,34.269
34.585,34.229
34.49,34.186
34.406,34.141
34.333,34.093
34.272,34.042
34.223,33.989
34.186,33.933
34.16,33.876
34.145,33.818
34.14,33.759
34.143,33.699
34.155,33.641
34.174,33.583
34.199,33.526
34.228,33.471
34.261,33.42
34.295,33.371
34.33,33.326
34.366,33.283
34.401,33.241
34.435,33.199
34.466,33.16
34.495,33.121
34.52,33.084
34.541,33.049
34.559,33.015
34.574,32.982
34.585,32.95
34.593,32.921
34.597,32.895
34.596,32.873
34.592,32.857
34.584,32.847
34.572,32.845
34.558,32.855
34.54,32.879
34.519,32.921
34.496,32.983
34.47,33.07
34.442,33.188
34.411,33.341
34.379,33.534
34.344,33.768
34.308,34.047
34.271,34.371
34.231,34.737
34.191,35.142
34.149,35.579
34.107,36.039
34.063,36.512
34.018,36.987
33.972,37.45
33.923,37.888
33.873,38.292
33.822,38.653
33.771,38.965
33.719,39.222
33.668,39.423
33.616,39.569
33.564,39.661
33.514,39.703
33.466,39.697
33.421,39.649
33.379,39.565
33.341,39.452
33.307,39.316
33.276,39.164
33.248,39
33.225,38.832
33.204,38.661
33.186,38.491
33.169,38.324
33.154,38.162
33.14,38.005
33.125,37.856
33.109,37.714
33.092,37.58
33.074,37.454
33.054,37.335
33.033,37.221
33.013,37.111
32.992,37.005
32.973,36.901
32.954,36.802
32.937,36.705
32.919,36.61
32.903,36.517
32.888,36.424
32.875,36.333
32.864,36.241
32.854,36.147
32.847,36.053
32.843,35.958
32.842,35.861
32.846,35.764
32.858,35.667
32.879,35.571
32.913,35.478
32.96,35.388
33.022,35.301
33.1,35.22
33.198,35.145
33.321,35.074
33.476,35.008
33.667,34.947
33.897,34.891
34.168,34.84
34.481,34.795
34.831,34.755
35.216,34.722
35.631,34.694
36.067,34.675
36.519,34.663
36.976,34.658
37.43,34.659
37.874,34.666
38.3,34.679
38.701,34.699
39.071,34.723
39.406,34.751
39.701,34.781
39.954,34.812
40.164,34.841
40.33,34.867
40.454,34.89
40.536,34.909
40.577,34.924
40.582,34.935
40.553,34.941
40.493,34.944
40.406,34.944
40.294,34.94
40.163,34.933
40.015,34.924
39.854,34.914
39.681,34.903
39.5,34.891
39.315,34.879
39.126,34.866
38.936,34.853
38.746,34.84
38.558,34.826
38.371,34.81
38.188,34.791
38.008,34.769
37.832,34.743
37.659,34.712
37.489,34.679
37.323,34.641
37.161,34.6
37.003,34.554
36.849,34.505
36.697,34.454
36.547,34.4
36.401,34.346
36.258,34.292
36.118,34.236
35.981,34.182
35.846,34.129
35.713,34.079
35.583,34.031
35.456,33.985
35.334,33.941
35.216,33.899
35.104,33.857
34.999,33.817
34.902,33.776
34.813,33.735
34.734,33.693
34.666,33.652
34.607,33.61
34.558,33.568
34.518,33.526
34.487,33.484
34.464,33.442
34.448,33.399
34.439,33.358
34.434,33.317
34.434,33.277
34.439,33.238
34.447,33.201
34.459,33.166
34.474,33.136
34.493,33.11
34.515,33.09
34.539,33.076
34.564,33.071
34.589,33.076
34.613,33.093
34.634,33.124
34.653,33.173
34.669,33.245
34.681,33.344
34.69,33.471
34.696,33.628
34.699,33.816
34.698,34.04
34.693,34.305
34.684,34.613
34.67,34.962
34.653,35.349
34.632,35.769
34.606,36.211
34.575,36.665
34.54,37.12
34.502,37.563
34.461,37.985
34.419,38.374
34.374,38.72
34.329,39.018
34.282,39.262
34.233,39.451
34.182,39.585
34.13,39.664
34.077,39.693
34.025,39.675
33.973,39.616
33.923,39.52
33.873,39.393
33.824,39.242
33.776,39.075
33.728,38.898
33.683,38.717
33.638,38.534
33.595,38.355
33.552,38.182
33.511,38.017
33.471,37.861
33.432,37.714
33.395,37.578
33.36,37.451
33.327,37.333
33.296,37.223
33.267,37.118
33.239,37.019
33.213,36.923
33.187,36.829
33.163,36.735
33.139,36.642
33.115,36.55
33.09,36.457
33.066,36.363
33.043,36.267
33.021,36.17
33,36.071
32.982,35.972
32.965,35.873
32.949,35.776
32.934,35.681
32.919,35.589
32.905,35.5
32.892,35.413
32.879,35.327
32.867,35.243
32.857,35.162
32.847,35.084
32.838,35.011
32.831,34.945
32.826,34.885
32.824,34.832
32.826,34.787
32.834,34.75
32.849,34.721
32.873,34.701
32.911,34.689
32.964,34.683
33.035,34.683
33.129,34.688
33.247,34.697
33.395,34.709
33.574,34.723
33.789,34.74
34.041,34.76
34.331,34.783
34.657,34.807
35.018,34.83
35.41,34.852
35.826,34.873
36.262,34.892
36.711,34.909
37.165,34.925
37.616,34.94
38.057,34.953
38.48,34.964
38.881,34.971
39.252,34.975
39.588,34.978
39.887,34.978
40.146,34.976
40.363,34.972
40.537,34.965
40.669,34.954
40.759,34.939
40.809,34.92
40.822,34.896
40.801,34.869
40.75,34.839
40.67,34.806
40.566,34.769
40.441,34.728
40.302,34.685
40.149,34.638
39.987,34.59
39.818,34.54
39.644,34.489
39.468,34.438
39.292,34.388
39.116,34.336
38.942,34.283
38.77,34.231
38.601,34.179
38.435,34.127
38.272,34.077
38.113,34.028
37.956,33.979
37.803,33.931
37.653,33.883
37.507,33.837
37.365,33.791
37.225,33.746
37.087,33.701
36.951,33.657
36.817,33.611
36.683,33.566
36.549,33.521
36.416,33.477
36.284,33.432
36.153,33.388
36.026,33.345
35.901,33.302
35.779,33.26
35.661,33.22
35.546,33.181
35.436,33.146
35.331,33.115
35.231,33.09
35.138,33.072
35.052,33.063
34.973,33.064
34.903,33.077
34.842,33.105
34.788,33.15
34.743,33.217
34.706,33.311
34.678,33.438
34.657,33.604
34.643,33.813
34.636,34.069
34.634,34.374
34.637,34.725
34.644,35.117
34.655,35.546
34.67,36.002
34.688,36.475
34.706,36.953
34.725,37.423
34.744,37.873
34.761,38.294
34.776,38.674
34.789,39.008
34.799,39.289
34.806,39.515
34.809,39.685
34.808,39.798
34.802,39.859
34.789,39.871
34.77,39.839
34.744,39.771
34.713,39.67
34.677,39.545
34.637,39.399
34.596,39.242
34.553,39.076
34.512,38.907
34.47,38.74
34.429,38.576
34.388,38.419
34.347,38.27
34.307,38.13
34.267,37.998
34.228,37.875
34.188,37.759
34.149,37.649
34.109,37.544
34.069,37.444
34.028,37.347
33.987,37.254
33.944,37.162
33.899,37.071
33.852,36.981
33.805,36.891
33.756,36.803
33.708,36.715
33.66,36.627
33.612,36.539
33.566,36.452
33.52,36.364
33.477,36.276
33.436,36.187
33.396,36.098
33.359,36.008
33.323,35.919
33.289,35.83
33.256,35.741
33.224,35.653
33.193,35.567
33.161,35.485
33.131,35.406
33.1,35.332
33.071,35.264
33.042,35.203
33.015,35.147
32.99,35.098
32.967,35.055
32.947,35.017
32.93,34.984
32.917,34.955
32.907,34.931
32.9,34.911
32.895,34.897
32.89,34.888
32.886,34.885
32.882,34.887
32.877,34.893
32.872,34.903
32.867,34.916
32.861,34.932
32.858,34.951
32.858,34.972
32.864,34.994
32.879,35.017
32.904,35.038
32.943,35.057
32.999,35.075
33.076,35.09
33.179,35.102
33.31,35.109
33.474,35.112
33.672,35.11
33.908,35.103
34.182,35.09
34.492,35.073
34.838,35.053
35.214,35.029
35.616,35.002
36.039,34.971
36.475,34.936
36.918,34.898
37.36,34.859
37.793,34.817
38.211,34.774
38.607,34.729
38.974,34.682
39.308,34.633
39.605,34.581
39.863,34.529
40.08,34.476
40.256,34.424
40.39,34.373
40.485,34.324
40.541,34.276
40.562,34.229
40.551,34.184
40.511,34.136
40.444,34.087
40.355,34.035
40.246,33.98
40.122,33.924
39.985,33.867
39.84,33.809
39.688,33.75
39.531,33.69
39.371,33.63
39.209,33.571
39.044,33.513
38.878,33.458
38.71,33.405
38.541,33.355
38.371,33.306
38.2,33.26
38.03,33.218
37.861,33.179
37.694,33.142
37.53,33.109
37.369,33.076
37.212,33.045
37.06,33.015
36.912,32.983
36.768,32.949
36.627,32.913
36.489,32.877
36.353,32.843
36.221,32.814
36.09,32.794
35.962,32.789
35.836,32.803
35.711,32.839
35.588,32.903
35.468,32.998
35.351,33.129
35.238,33.3
35.13,33.516
35.028,33.78
34.933,34.093
34.845,34.454
34.765,34.86
34.695,35.303
34.634,35.776
34.582,36.267
34.537,36.765
34.501,37.256
34.474,37.728
34.456,38.171
34.446,38.576
34.443,38.934
34.447,39.24
34.456,39.491
34.469,39.684
34.485,39.821
34.502,39.903
34.52,39.934
34.537,39.917
34.551,39.86
34.562,39.77
34.569,39.654
34.572,39.519
34.572,39.371
34.571,39.214
34.568,39.052
34.565,38.889
34.56,38.728
34.555,38.571
34.55,38.421
34.544,38.279
34.536,38.145
34.525,38.018
34.513,37.898
34.497,37.783
34.478,37.674
34.455,37.569
34.428,37.467
34.397,37.368
34.362,37.272
34.325,37.178
34.286,37.086
34.244,36.994
34.2,36.904
34.154,36.814
34.106,36.726
34.056,36.639
34.006,36.553
33.957,36.468
33.907,36.385
33.859,36.303
33.81,36.22
33.761,36.138
33.714,36.059
33.668,35.989
33.624,35.932
33.582,35.886
33.541,35.849
33.501,35.82
33.462,35.795
33.425,35.769
33.388,35.739
33.351,35.703
33.314,35.66
33.277,35.609
33.24,35.553
33.204,35.491
33.169,35.427
33.133,35.361
33.096,35.296
33.058,35.234
33.02,35.177
32.984,35.126
32.95,35.082
32.921,35.046
32.894,35.018
32.872,34.998
32.852,34.985
32.837,34.981
32.824,34.982
32.814,34.99
32.806,35.004
32.799,35.024
32.792,35.049
32.786,35.076
32.78,35.105
32.775,35.134
32.772,35.162
32.771,35.188
32.77,35.208
32.77,35.222
32.77,35.229
32.771,35.229
32.773,35.223
32.775,35.209
32.779,35.19
32.784,35.164
32.794,35.131
32.809,35.093
32.832,35.05
32.864,35.003
32.91,34.955
32.971,34.903
33.052,34.849
33.156,34.794
33.286,34.738
33.445,34.682
33.635,34.627
33.858,34.574
34.114,34.521
34.406,34.471
34.732,34.421
35.087,34.373
35.469,34.326
35.872,34.278
36.288,34.231
36.711,34.182
37.134,34.132
37.548,34.081
37.946,34.028
38.322,33.974
38.671,33.918
38.986,33.861
39.265,33.803
39.505,33.745
39.705,33.686
39.864,33.628
39.984,33.569
40.064,33.511
40.106,33.452
40.115,33.394
40.091,33.337
40.039,33.282
39.961,33.229
39.862,33.181
39.745,33.135
39.613,33.092
39.469,33.049
39.316,33.008
39.157,32.969
38.995,32.932
38.83,32.897
38.664,32.865
38.497,32.835
38.33,32.808
38.163,32.784
37.998,32.764
37.834,32.75
37.673,32.744
37.514,32.748
37.357,32.763
37.201,32.794
37.048,32.845
36.896,32.919
36.747,33.022
36.599,33.158
36.453,33.332
36.308,33.549
36.164,33.811
36.023,34.121
35.886,34.475
35.753,34.872
35.624,35.305
35.501,35.766
35.382,36.245
35.27,36.73
35.163,37.209
35.063,37.67
34.969,38.101
34.882,38.493
34.801,38.839
34.727,39.132
34.66,39.371
34.601,39.553
34.548,39.68
34.503,39.754
34.464,39.779
34.432,39.76
34.406,39.702
34.385,39.611
34.371,39.493
34.362,39.356
34.359,39.205
34.362,39.045
34.371,38.881
34.385,38.717
34.405,38.555
34.429,38.397
34.457,38.243
34.488,38.095
34.521,37.953
34.555,37.818
34.589,37.69
34.621,37.57
34.651,37.456
34.677,37.347
34.699,37.243
34.715,37.142
34.725,37.044
34.73,36.948
34.73,36.855
34.725,36.765
34.714,36.675
34.699,36.586
34.679,36.497
34.656,36.409
34.629,36.32
34.6,36.231
34.568,36.143
34.533,36.057
34.497,35.974
34.458,35.892
34.419,35.811
34.378,35.731
34.336,35.652
34.292,35.573
34.249,35.497
34.204,35.422
34.159,35.35
34.114,35.281
34.068,35.215
34.023,35.152
33.979,35.093
33.936,35.038
33.894,34.989
33.854,34.946
33.815,34.908
33.777,34.876
33.742,34.85
33.708,34.83
33.674,34.816
33.641,34.808
33.608,34.806
33.577,34.81
33.545,34.819
33.515,34.832
33.486,34.849
33.458,34.867
33.431,34.886
33.406,34.906
33.383,34.926
33.361,34.946
33.34,34.965
33.32,34.983
33.3,34.999
33.28,35.013
33.26,35.024
33.241,35.034
33.223,35.041
33.204,35.045
33.185,35.045
33.166,35.04
33.148,35.032
33.133,35.018
33.119,34.999
33.106,34.975
33.094,34.947
33.083,34.916
33.073,34.881
33.065,34.844
33.062,34.805
33.063,34.764
33.071,34.722
33.087,34.678
33.113,34.633
33.153,34.588
33.207,34.543
33.28,34.498
33.375,34.453
33.494,34.408
33.64,34.363
33.816,34.321
34.023,34.281
34.264,34.242
34.537,34.205
34.842,34.169
35.175,34.134
35.532,34.098
35.908,34.058
36.296,34.014
36.69,33.965
37.083,33.912
37.47,33.855
37.845,33.794
38.201,33.73
38.535,33.665
38.841,33.601
39.116,33.538
39.357,33.478
39.563,33.421
39.732,33.368
39.864,33.32
39.959,33.275
40.02,33.235
40.047,33.199
40.042,33.167
40.008,33.136
39.948,33.107
39.864,33.08
39.76,33.054
39.637,33.029
39.5,33.005
39.35,32.98
39.19,32.954
39.021,32.928
38.845,32.904
38.665,32.882
38.483,32.865
38.301,32.857
38.119,32.862
37.939,32.883
37.762,32.924
37.586,32.99
37.414,33.084
37.246,33.211
37.082,33.377
36.921,33.585
36.765,33.839
36.613,34.139
36.464,34.485
36.319,34.872
36.177,35.294
36.038,35.743
35.903,36.209
35.772,36.682
35.644,37.148
35.521,37.596
35.403,38.015
35.29,38.397
35.182,38.734
35.077,39.02
34.973,39.252
34.871,39.429
34.772,39.552
34.681,39.623
34.598,39.647
34.526,39.629
34.466,39.573
34.418,39.486
34.383,39.371
34.361,39.235
34.35,39.083
34.35,38.92
34.358,38.751
34.372,38.578
34.392,38.404
34.416,38.23
34.443,38.059
34.472,37.891
34.502,37.729
34.531,37.574
34.56,37.427
34.588,37.289
34.614,37.159
34.639,37.038
34.662,36.924
34.683,36.818
34.702,36.719
34.719,36.625
34.732,36.536
34.742,36.45
34.749,36.368
34.751,36.287
34.75,36.206
34.745,36.124
34.736,36.04
34.722,35.955
34.703,35.869
34.679,35.781
34.651,35.692
34.618,35.603
34.581,35.515
34.542,35.429
34.499,35.344
34.454,35.262
34.406,35.182
34.358,35.104
34.31,35.03
34.262,34.96
34.216,34.893
34.171,34.831
34.129,34.775
34.089,34.724
34.052,34.68
34.016,34.643
33.979,34.615
33.941,34.595
33.902,34.584
33.863,34.579
33.823,34.58
33.782,34.587
33.742,34.6
33.701,34.617
33.659,34.64
33.618,34.668
33.578,34.699
33.541,34.731
33.505,34.765
33.471,34.798
33.439,34.829
33.409,34.858
33.38,34.884
33.352,34.906
33.326,34.925
33.301,34.941
33.276,34.953
33.252,34.961
33.227,34.966
33.203,34.967
33.178,34.966
33.154,34.96
33.129,34.949
33.106,34.932
33.084,34.912
33.065,34.888
33.047,34.862
33.031,34.833
33.017,34.803
33.006,34.772
32.998,34.739
32.995,34.705
32.997,34.669
33.006,34.63
33.023,34.589
33.049,34.545
33.088,34.498
33.143,34.45
33.217,34.4
33.313,34.348
33.435,34.295
33.584,34.239
33.764,34.182
33.977,34.123
34.225,34.063
34.507,34.002
34.821,33.939
35.167,33.877
35.54,33.815
35.935,33.754
36.347,33.695
36.767,33.639
37.188,33.586
37.604,33.535
38.008,33.486
38.393,33.437
38.753,33.39
39.082,33.345
39.377,33.301
39.634,33.261
39.853,33.222
40.032,33.185
40.172,33.151
40.274,33.117
40.339,33.085
40.37,33.055
40.37,33.027
40.341,33.001
40.286,32.977
40.208,32.954
40.111,32.931
39.998,32.91
39.871,32.891
39.733,32.875
39.586,32.866
39.432,32.864
39.273,32.873
39.111,32.897
38.946,32.94
38.781,33.007
38.617,33.104
38.456,33.236
38.3,33.408
38.147,33.625
37.999,33.891
37.855,34.207
37.713,34.57
37.574,34.976
37.438,35.416
37.303,35.882
37.17,36.363
37.037,36.847
36.904,37.321
36.773,37.775
36.642,38.196
36.513,38.577
36.384,38.91
36.256,39.19
36.129,39.414
36.002,39.583
35.876,39.695
35.752,39.754
35.631,39.764
35.512,39.732
35.398,39.664
35.289,39.568
35.187,39.447
35.092,39.308
35.006,39.154
34.931,38.991
34.865,38.824
34.809,38.654
34.762,38.484
34.724,38.315
34.695,38.15
34.675,37.989
34.662,37.835
34.656,37.687
34.656,37.547
34.661,37.415
34.671,37.288
34.685,37.167
34.701,37.05
34.72,36.938
34.741,36.83
34.764,36.726
34.787,36.623
34.808,36.522
34.828,36.422
34.846,36.325
34.86,36.229
34.87,36.135
34.876,36.043
34.878,35.953
34.876,35.865
34.87,35.779
34.861,35.693
34.849,35.607
34.832,35.521
34.811,35.437
34.787,35.353
34.759,35.272
34.729,35.194
34.695,35.118
34.658,35.047
34.619,34.98
34.576,34.92
34.532,34.866
34.486,34.82
34.439,34.779
34.392,34.744
34.344,34.716
34.295,34.696
34.246,34.684
34.197,34.68
34.148,34.683
34.1,34.691
34.053,34.704
34.006,34.72
33.96,34.739
33.915,34.758
33.871,34.779
33.827,34.799
33.784,34.82
33.74,34.841
33.697,34.863
33.654,34.884
33.611,34.904
33.57,34.922
33.53,34.938
33.491,34.952
33.453,34.963
33.417,34.971
33.382,34.976
33.349,34.977
33.318,34.973
33.287,34.964
33.258,34.95
33.231,34.93
33.206,34.906
33.183,34.879
33.16,34.848
33.139,34.815
33.118,34.779
33.097,34.741
33.078,34.7
33.062,34.658
33.047,34.615
33.032,34.571
33.018,34.525
33.004,34.478
32.992,34.428
32.982,34.375
32.975,34.321
32.97,34.266
32.968,34.21
32.972,34.154
32.983,34.097
33.004,34.04
33.038,33.983
33.088,33.927
33.158,33.872
33.251,33.82
33.372,33.77
33.526,33.722
33.716,33.676
33.943,33.632
34.209,33.587
34.513,33.543
34.852,33.499
35.225,33.454
35.626,33.409
36.047,33.363
36.484,33.315
36.927,33.267
37.37,33.218
37.805,33.171
38.224,33.126
38.621,33.084
38.989,33.044
39.323,33.005
39.621,32.969
39.878,32.935
40.095,32.904
40.268,32.875
40.4,32.847
40.49,32.82
40.542,32.795
40.557,32.77
40.538,32.747
40.489,32.726
40.414,32.711
40.316,32.706
40.199,32.713
40.067,32.736
39.922,32.778
39.769,32.845
39.608,32.941
39.445,33.073
39.28,33.247
39.116,33.468
38.953,33.741
38.793,34.066
38.636,34.441
38.483,34.861
38.334,35.319
38.189,35.807
38.048,36.312
37.909,36.82
37.773,37.316
37.639,37.786
37.506,38.22
37.374,38.609
37.243,38.948
37.112,39.234
36.98,39.465
36.848,39.642
36.714,39.767
36.58,39.843
36.444,39.872
36.308,39.859
36.172,39.809
36.037,39.726
35.905,39.616
35.776,39.484
35.652,39.339
35.534,39.184
35.421,39.027
35.315,38.868
35.216,38.713
35.123,38.561
35.037,38.413
34.958,38.27
34.886,38.133
34.821,38.002
34.765,37.877
34.717,37.758
34.677,37.644
34.646,37.536
34.624,37.433
34.61,37.333
34.603,37.235
34.602,37.139
34.609,37.044
34.621,36.949
34.638,36.856
34.657,36.763
34.678,36.671
34.699,36.578
34.72,36.484
34.74,36.391
34.758,36.298
34.773,36.207
34.784,36.118
34.791,36.032
34.793,35.949
34.791,35.867
34.786,35.788
34.776,35.711
34.761,35.637
34.742,35.564
34.718,35.494
34.689,35.425
34.656,35.359
34.619,35.294
34.58,35.231
34.538,35.17
34.495,35.113
34.451,35.06
34.407,35.013
34.363,34.971
34.32,34.935
34.277,34.905
34.236,34.881
34.195,34.863
34.155,34.851
34.116,34.844
34.077,34.843
34.038,34.846
33.999,34.852
33.959,34.861
33.919,34.874
33.879,34.889
33.838,34.906
33.797,34.921
33.756,34.936
33.716,34.949
33.676,34.961
33.637,34.971
33.598,34.98
33.559,34.986
33.521,34.989
33.484,34.99
33.45,34.989
33.418,34.985
33.388,34.978
33.36,34.968
33.334,34.953
33.308,34.934
33.284,34.911
33.26,34.882
33.236,34.849
33.212,34.809
33.188,34.763
33.162,34.712
33.135,34.656
33.108,34.596
33.08,34.533
33.052,34.469
33.024,34.404
32.997,34.342
32.971,34.282
32.947,34.226
32.925,34.173
32.903,34.124
32.884,34.078
32.865,34.035
32.849,33.993
32.836,33.952
32.825,33.909
32.819,33.865
32.815,33.819
32.816,33.772
32.82,33.723
32.829,33.672
32.844,33.621
32.868,33.57
32.903,33.518
32.95,33.468
33.014,33.42
33.098,33.374
33.203,33.329
33.334,33.286
33.492,33.244
33.682,33.203
33.904,33.162
34.159,33.12
34.449,33.076
34.771,33.032
35.12,32.988
35.495,32.943
35.89,32.898
36.299,32.854
36.716,32.811
37.135,32.77
37.548,32.731
37.949,32.696
38.331,32.666
38.689,32.641
39.018,32.624
39.313,32.616
39.571,32.618
39.79,32.632
39.968,32.661
40.107,32.707
40.205,32.776
40.265,32.875
40.29,33.011
40.281,33.188
40.241,33.414
40.175,33.692
40.085,34.024
39.976,34.409
39.852,34.842
39.714,35.314
39.566,35.814
39.408,36.331
39.242,36.851
39.07,37.361
38.893,37.847
38.715,38.298
38.537,38.703
38.362,39.056
38.19,39.347
38.023,39.576
37.862,39.741
37.707,39.845
37.558,39.892
37.415,39.889
37.277,39.842
37.144,39.758
37.015,39.644
36.888,39.506
36.765,39.351
36.643,39.184
36.522,39.012
36.403,38.839
36.284,38.67
36.167,38.505
36.049,38.348
35.932,38.199
35.816,38.057
35.701,37.922
35.587,37.793
35.476,37.67
35.369,37.552
35.266,37.44
35.167,37.332
35.075,37.227
34.989,37.125
34.911,37.025
34.839,36.926
34.776,36.828
34.722,36.732
34.677,36.636
34.641,36.543
34.615,36.45
34.598,36.359
34.589,36.269
34.587,36.18
34.592,36.091
34.602,36.003
34.615,35.915
34.631,35.829
34.648,35.743
34.666,35.658
34.682,35.574
34.698,35.491
34.712,35.409
34.725,35.329
34.735,35.251
34.742,35.178
34.747,35.108
34.749,35.042
34.749,34.981
34.745,34.924
34.738,34.869
34.727,34.815
34.713,34.764
34.696,34.717
34.676,34.676
34.654,34.64
34.629,34.61
34.601,34.587
34.571,34.572
34.54,34.565
34.506,34.567
34.47,34.577
34.43,34.595
34.389,34.618
34.345,34.646
34.301,34.677
34.256,34.711
34.21,34.747
34.165,34.783
34.12,34.82
34.074,34.854
34.029,34.885
33.984,34.91
33.938,34.927
33.892,34.938
33.847,34.941
33.803,34.94
33.76,34.933
33.72,34.922
33.681,34.904
33.643,34.882
33.607,34.855
33.571,34.824
33.536,34.789
33.503,34.751
33.471,34.711
33.439,34.668
33.407,34.623
33.375,34.576
33.344,34.526
33.315,34.476
33.286,34.425
33.259,34.373
33.233,34.32
33.207,34.267
33.181,34.212
33.156,34.156
33.132,34.099
33.109,34.041
33.087,33.983
33.066,33.923
33.047,33.862
33.03,33.8
33.016,33.738
33.004,33.675
32.993,33.614
32.984,33.553
32.976,33.492
32.968,33.432
32.961,33.375
32.954,33.319
32.947,33.266
32.94,33.215
32.934,33.167
32.927,33.123
32.92,33.082
32.914,33.044
32.909,33.007
32.904,32.972
32.901,32.938
32.901,32.902
32.903,32.864
32.91,32.826
32.923,32.786
32.942,32.745
32.97,32.704
33.008,32.663
33.059,32.625
33.127,32.589
33.214,32.557
33.323,32.529
33.458,32.506
33.62,32.491
33.813,32.484
34.037,32.486
34.293,32.498
34.581,32.523
34.899,32.563
35.245,32.622
35.614,32.704
36,32.813
36.397,32.955
36.8,33.134
37.2,33.357
37.592,33.627
37.967,33.945
38.321,34.311
38.648,34.721
38.943,35.171
39.202,35.65
39.424,36.15
39.607,36.657
39.752,37.16
39.859,37.644
39.93,38.099
39.966,38.514
39.969,38.881
39.942,39.194
39.888,39.448
39.811,39.642
39.713,39.774
39.598,39.849
39.467,39.869
39.324,39.839
39.17,39.766
39.009,39.657
38.842,39.517
38.671,39.355
38.497,39.177
38.322,38.988
38.148,38.794
37.975,38.602
37.806,38.414
37.64,38.232
37.477,38.059
37.317,37.898
37.16,37.747
37.007,37.607
36.857,37.476
36.71,37.352
36.567,37.235
36.427,37.123
36.29,37.014
36.156,36.908
36.024,36.803
35.895,36.698
35.769,36.594
35.647,36.49
35.529,36.387
35.415,36.287
35.305,36.188
35.2,36.091
35.097,35.995
34.999,35.902
34.904,35.81
34.815,35.72
34.734,35.631
34.662,35.543
34.599,35.455
34.547,35.366
34.505,35.278
34.475,35.189
34.456,35.102
34.448,35.017
34.448,34.934
34.457,34.855
34.474,34.779
34.496,34.707
34.524,34.641
34.555,34.581
34.589,34.528
34.624,34.482
34.659,34.445
34.694,34.417
34.729,34.397
34.762,34.384
34.793,34.379
34.821,34.38
34.845,34.389
34.864,34.404
34.879,34.425
34.89,34.45
34.895,34.479
34.895,34.51
34.891,34.541
34.882,34.571
34.869,34.598
34.852,34.624
34.83,34.647
34.805,34.666
34.778,34.682
34.749,34.694
34.719,34.702
34.686,34.705
34.653,34.705
34.618,34.7
34.582,34.692
34.546,34.682
34.509,34.668
34.471,34.651
34.43,34.631
34.388,34.608
34.344,34.582
34.298,34.554
34.252,34.523
34.204,34.491
34.154,34.456
34.104,34.421
34.054,34.384
34.005,34.346
33.957,34.308
33.91,34.27
33.864,34.232
33.819,34.192
33.776,34.15
33.734,34.105
33.695,34.059
33.658,34.011
33.624,33.962
33.592,33.911
33.563,33.859
33.536,33.806
33.511,33.751
33.488,33.696
33.466,33.643
33.445,33.59
33.424,33.538
33.403,33.487
33.382,33.436
33.361,33.387
33.341,33.34
33.322,33.295
33.303,33.252
33.284,33.213
33.265,33.177
33.245,33.143
33.226,33.11
33.208,33.077
33.192,33.045
33.176,33.014
33.161,32.982
33.148,32.95
33.135,32.916
33.123,32.88
33.113,32.843
33.105,32.806
33.1,32.77
33.097,32.738
33.098,32.711
33.103,32.693
33.114,32.686
33.133,32.692
33.163,32.714
33.205,32.757
33.263,32.824
33.339,32.918
33.435,33.046
33.554,33.212
33.698,33.42
33.869,33.674
34.071,33.974
34.303,34.322
34.566,34.714
34.859,35.146
35.18,35.608
35.527,36.091
35.895,36.582
36.278,37.069
36.669,37.54
37.061,37.982
37.447,38.384
37.819,38.74
38.173,39.044
38.502,39.292
38.803,39.483
39.072,39.617
39.307,39.696
39.505,39.723
39.666,39.702
39.791,39.638
39.879,39.539
39.933,39.412
39.955,39.261
39.946,39.094
39.91,38.915
39.849,38.729
39.766,38.54
39.665,38.353
39.548,38.171
39.418,37.994
39.277,37.826
