Trial 1:0back,Trial 6:0back
33.146,36.478
33.68,36.517
34.298,36.539
34.994,36.545
35.759,36.535
36.581,36.512
37.446,36.476
38.336,36.429
39.23,36.37
40.11,36.3
40.956,36.219
41.75,36.127
42.479,36.027
43.13,35.918
43.695,35.802
44.167,35.682
44.545,35.558
44.828,35.431
45.021,35.301
45.128,35.169
45.158,35.036
45.117,34.902
45.015,34.769
44.861,34.635
44.664,34.503
44.431,34.373
44.17,34.245
43.887,34.12
43.588,33.998
43.279,33.88
42.962,33.765
42.643,33.654
42.323,33.546
42.004,33.441
41.687,33.339
41.372,33.239
41.06,33.142
40.751,33.046
40.445,32.95
40.142,32.856
39.841,32.763
39.542,32.673
39.247,32.587
38.955,32.505
38.668,32.428
38.386,32.357
38.109,32.292
37.838,32.233
37.573,32.178
37.315,32.128
37.062,32.082
36.814,32.038
36.569,31.997
36.327,31.959
36.089,31.925
35.853,31.894
35.623,31.865
35.398,31.837
35.182,31.81
34.978,31.783
34.785,31.757
34.607,31.729
34.443,31.701
34.295,31.672
34.164,31.644
34.05,31.616
33.955,31.591
33.878,31.569
33.82,31.55
33.78,31.536
33.76,31.525
33.759,31.517
33.778,31.512
33.816,31.509
33.873,31.508
33.949,31.507
34.042,31.507
34.153,31.508
34.278,31.509
34.415,31.512
34.564,31.515
34.72,31.519
34.882,31.524
35.047,31.528
35.212,31.531
35.375,31.535
35.534,31.541
35.687,31.551
35.831,31.566
35.964,31.589
36.083,31.623
36.188,31.67
36.276,31.737
36.347,31.829
36.399,31.954
36.432,32.119
36.447,32.332
36.444,32.602
36.423,32.937
36.385,33.341
36.332,33.817
36.264,34.365
36.181,34.979
36.085,35.653
35.978,36.376
35.86,37.135
35.736,37.911
35.606,38.687
35.474,39.446
35.341,40.173
35.207,40.853
35.074,41.477
34.941,42.034
34.807,42.518
34.673,42.925
34.537,43.253
34.4,43.504
34.263,43.679
34.125,43.783
33.988,43.822
33.853,43.802
33.722,43.731
33.594,43.614
33.47,43.46
33.348,43.274
33.228,43.065
33.11,42.837
32.993,42.595
32.876,42.345
32.759,42.089
32.644,41.83
32.53,41.571
32.42,41.312
32.313,41.054
32.212,40.797
32.116,40.542
32.027,40.287
31.945,40.034
31.867,39.782
31.795,39.53
31.727,39.28
31.664,39.031
31.604,38.785
31.551,38.542
31.502,38.305
31.46,38.073
31.423,37.848
31.391,37.632
31.363,37.428
31.337,37.239
31.313,37.064
31.289,36.901
31.266,36.746
31.241,36.596
31.216,36.447
31.191,36.297
31.166,36.142
31.142,35.983
31.12,35.819
31.101,35.651
31.084,35.478
31.07,35.303
31.059,35.13
31.051,34.962
31.047,34.802
31.046,34.653
31.048,34.519
31.054,34.402
31.065,34.303
31.08,34.224
31.098,34.167
31.118,34.133
31.139,34.121
31.16,34.134
31.181,34.168
31.201,34.225
31.219,34.303
31.235,34.399
31.25,34.513
31.262,34.641
31.272,34.781
31.279,34.929
31.284,35.084
31.286,35.243
31.286,35.401
31.285,35.556
31.283,35.706
31.282,35.85
31.286,35.986
31.296,36.114
31.316,36.231
31.351,36.336
31.406,36.429
31.488,36.51
31.607,36.578
31.772,36.631
31.991,36.67
32.274,36.693
32.627,36.698
33.057,36.687
33.567,36.657
34.158,36.612
34.828,36.553
35.569,36.482
36.374,36.402
37.228,36.315
38.116,36.222
39.018,36.127
39.914,36.03
40.785,35.93
41.612,35.829
42.377,35.725
43.067,35.618
43.671,35.508
44.18,35.396
44.591,35.283
44.903,35.169
45.118,35.054
45.24,34.939
45.276,34.825
45.235,34.712
45.125,34.601
44.957,34.492
44.742,34.383
44.489,34.276
44.206,34.17
43.902,34.064
43.584,33.959
43.257,33.855
42.926,33.753
42.593,33.652
42.259,33.554
41.928,33.458
41.599,33.365
41.275,33.276
40.954,33.192
40.639,33.111
40.328,33.033
40.023,32.957
39.725,32.883
39.431,32.81
39.144,32.739
38.861,32.67
38.582,32.604
38.305,32.542
38.031,32.482
37.759,32.426
37.489,32.375
37.223,32.33
36.958,32.289
36.696,32.254
36.437,32.224
36.182,32.199
35.931,32.178
35.684,32.163
35.444,32.154
35.212,32.152
34.991,32.154
34.782,32.162
34.587,32.172
34.41,32.184
34.25,32.197
34.11,32.211
33.988,32.227
33.886,32.244
33.803,32.262
33.739,32.28
33.694,32.299
33.667,32.318
33.658,32.339
33.669,32.359
33.699,32.38
33.749,32.401
33.818,32.421
33.907,32.439
34.013,32.454
34.136,32.467
34.274,32.476
34.425,32.483
34.586,32.487
34.753,32.491
34.925,32.494
35.096,32.498
35.266,32.506
35.431,32.521
35.59,32.546
35.74,32.584
35.879,32.642
36.006,32.725
36.12,32.84
36.22,32.996
36.305,33.2
36.373,33.46
36.424,33.78
36.458,34.166
36.474,34.618
36.471,35.135
36.451,35.709
36.413,36.334
36.358,36.998
36.286,37.688
36.199,38.39
36.098,39.088
35.985,39.768
35.862,40.415
35.731,41.018
35.594,41.566
35.454,42.052
35.311,42.468
35.17,42.813
35.029,43.084
34.89,43.282
34.754,43.411
34.619,43.474
34.485,43.479
34.353,43.431
34.221,43.339
34.09,43.209
33.96,43.043
33.831,42.847
33.703,42.628
33.576,42.392
33.45,42.144
33.327,41.888
33.205,41.629
33.086,41.371
32.97,41.114
32.856,40.862
32.745,40.613
32.636,40.369
32.531,40.127
32.428,39.887
32.329,39.648
32.233,39.41
32.141,39.171
32.054,38.933
31.971,38.695
31.894,38.457
31.823,38.219
31.756,37.981
31.692,37.744
31.631,37.507
31.572,37.273
31.515,37.042
31.461,36.814
31.409,36.589
31.361,36.367
31.315,36.151
31.272,35.94
31.232,35.733
31.196,35.533
31.164,35.338
31.135,35.148
31.111,34.965
31.092,34.787
31.077,34.614
31.065,34.447
31.055,34.286
31.049,34.131
31.045,33.983
31.044,33.845
31.047,33.717
31.054,33.601
31.064,33.495
31.076,33.402
31.091,33.322
31.106,33.255
31.123,33.203
31.141,33.167
31.159,33.147
31.177,33.143
31.193,33.155
31.208,33.182
31.221,33.223
31.233,33.276
31.242,33.338
31.25,33.408
31.256,33.484
31.262,33.562
31.268,33.641
31.274,33.72
31.279,33.796
31.283,33.868
31.285,33.935
31.284,33.995
31.278,34.045
31.269,34.086
31.257,34.115
31.244,34.133
31.232,34.139
31.222,34.135
31.216,34.121
31.216,34.099
31.222,34.069
31.236,34.031
31.257,33.988
31.287,33.937
31.331,33.881
31.393,33.818
31.483,33.75
31.608,33.678
31.777,33.601
32.001,33.521
32.288,33.437
32.647,33.349
33.083,33.259
33.6,33.166
34.197,33.072
34.872,32.978
35.617,32.886
36.42,32.797
37.268,32.712
38.145,32.633
39.032,32.561
39.911,32.496
40.762,32.439
41.568,32.39
42.312,32.351
42.982,32.32
43.567,32.299
44.06,32.286
44.457,32.282
44.757,32.285
44.961,32.294
45.074,32.307
45.103,32.326
45.055,32.348
44.94,32.374
44.767,32.403
44.545,32.437
44.283,32.473
43.99,32.513
43.674,32.556
43.342,32.603
43,32.655
42.653,32.712
42.305,32.775
41.96,32.844
41.621,32.918
41.289,32.998
40.965,33.084
40.649,33.175
40.341,33.27
40.039,33.366
39.744,33.464
39.455,33.561
39.171,33.658
38.89,33.755
38.61,33.851
38.332,33.945
38.054,34.035
37.777,34.121
37.501,34.2
37.227,34.27
36.955,34.329
36.688,34.376
36.425,34.409
36.17,34.429
35.923,34.437
35.683,34.434
35.452,34.42
35.229,34.397
35.015,34.364
34.812,34.324
34.619,34.275
34.439,34.221
34.273,34.162
34.123,34.097
33.988,34.03
33.871,33.96
33.772,33.891
33.693,33.826
33.634,33.767
33.596,33.721
33.579,33.689
33.582,33.678
33.606,33.692
33.651,33.736
33.716,33.818
33.8,33.942
33.906,34.114
34.04,34.337
34.203,34.613
34.39,34.944
34.596,35.328
34.815,35.762
35.04,36.239
35.264,36.75
35.481,37.287
35.687,37.84
35.876,38.398
36.046,38.951
36.194,39.488
36.319,39.998
36.42,40.47
36.499,40.896
36.555,41.268
36.59,41.582
36.606,41.833
36.605,42.02
36.588,42.145
36.558,42.208
36.515,42.215
36.462,42.17
36.399,42.08
36.327,41.95
36.246,41.787
36.158,41.597
36.063,41.385
35.961,41.158
35.853,40.918
35.741,40.671
35.624,40.42
35.502,40.165
35.378,39.91
35.25,39.655
35.12,39.4
34.989,39.146
34.856,38.894
34.721,38.643
34.587,38.393
34.452,38.145
34.318,37.898
34.185,37.652
34.056,37.406
33.929,37.161
33.807,36.917
33.689,36.677
33.576,36.442
33.469,36.211
33.368,35.985
33.273,35.765
33.182,35.55
33.093,35.342
33.005,35.139
32.917,34.941
32.826,34.748
32.733,34.56
32.637,34.378
32.54,34.203
32.441,34.037
32.342,33.881
32.244,33.735
32.15,33.601
32.059,33.48
31.973,33.373
31.892,33.282
31.815,33.209
31.744,33.154
31.677,33.116
31.615,33.096
31.559,33.093
31.507,33.108
31.462,33.139
31.422,33.187
31.388,33.25
31.36,33.328
31.335,33.419
31.314,33.523
31.296,33.637
31.281,33.76
31.267,33.889
31.254,34.023
31.243,34.158
31.234,34.293
31.227,34.426
31.222,34.555
31.219,34.68
31.22,34.8
31.222,34.915
31.227,35.022
31.233,35.123
31.239,35.214
31.246,35.297
31.252,35.37
31.258,35.432
31.265,35.484
31.272,35.525
31.28,35.555
31.29,35.574
31.3,35.582
31.309,35.579
31.32,35.567
31.33,35.547
31.34,35.518
31.351,35.482
31.361,35.439
31.371,35.389
31.381,35.333
31.389,35.27
31.396,35.202
31.402,35.128
31.406,35.05
31.41,34.968
31.414,34.884
31.418,34.798
31.424,34.711
31.432,34.621
31.444,34.529
31.462,34.435
31.489,34.339
31.528,34.243
31.585,34.146
31.666,34.048
31.776,33.948
31.925,33.846
32.122,33.742
32.373,33.636
32.688,33.53
33.073,33.424
33.532,33.318
34.065,33.214
34.673,33.109
35.35,33.005
36.088,32.902
36.877,32.801
37.703,32.703
38.551,32.608
39.403,32.517
40.243,32.43
41.053,32.345
41.822,32.263
42.545,32.181
43.21,32.101
43.807,32.021
44.322,31.944
44.747,31.868
45.077,31.795
45.307,31.726
45.438,31.66
45.475,31.6
45.424,31.545
45.292,31.495
45.091,31.448
44.83,31.404
44.52,31.363
44.172,31.326
43.797,31.292
43.405,31.261
43.002,31.231
42.597,31.203
42.196,31.176
41.802,31.151
41.419,31.128
41.048,31.111
40.69,31.1
40.345,31.098
40.012,31.111
39.689,31.141
39.375,31.198
39.068,31.286
38.768,31.415
38.473,31.593
38.183,31.829
37.896,32.129
37.614,32.5
37.334,32.944
37.058,33.463
36.785,34.054
36.516,34.712
36.25,35.429
35.99,36.194
35.736,36.993
35.49,37.811
35.253,38.632
35.026,39.439
34.81,40.217
34.606,40.951
34.415,41.627
34.237,42.235
34.072,42.768
33.92,43.221
33.781,43.591
33.656,43.88
33.546,44.089
33.453,44.223
33.378,44.288
33.323,44.289
33.29,44.234
33.279,44.13
33.292,43.985
33.328,43.808
33.388,43.605
33.469,43.382
33.569,43.144
33.689,42.898
33.824,42.646
33.974,42.392
34.136,42.137
34.309,41.883
34.491,41.631
34.681,41.379
34.875,41.13
35.072,40.881
35.268,40.634
35.462,40.387
35.652,40.142
35.834,39.899
36.004,39.659
36.16,39.423
36.298,39.189
36.414,38.959
36.506,38.734
36.572,38.512
36.612,38.294
36.625,38.077
36.613,37.859
36.578,37.636
36.523,37.411
36.449,37.184
36.361,36.958
36.262,36.734
36.153,36.515
36.037,36.303
35.917,36.101
35.793,35.908
35.666,35.725
35.536,35.552
35.404,35.387
35.27,35.23
35.133,35.08
34.994,34.938
34.852,34.804
34.709,34.678
34.565,34.56
34.419,34.452
34.273,34.354
34.127,34.27
33.983,34.2
33.839,34.146
33.698,34.108
33.559,34.087
33.423,34.081
33.291,34.091
33.162,34.117
33.035,34.157
32.911,34.213
32.791,34.285
32.675,34.373
32.564,34.475
32.459,34.59
32.361,34.716
32.271,34.851
32.189,34.993
32.113,35.138
32.044,35.285
31.979,35.43
31.92,35.57
31.865,35.702
31.813,35.823
31.766,35.932
31.721,36.028
31.68,36.109
31.643,36.176
31.61,36.23
31.579,36.27
31.55,36.296
31.524,36.308
31.5,36.307
31.48,36.293
31.461,36.265
31.443,36.224
31.427,36.171
31.41,36.106
31.394,36.03
31.377,35.945
31.361,35.852
31.345,35.752
31.33,35.647
31.315,35.538
31.301,35.427
31.289,35.314
31.279,35.199
31.272,35.084
31.267,34.968
31.264,34.852
31.261,34.735
31.258,34.619
31.255,34.502
31.252,34.384
31.249,34.268
31.244,34.152
31.238,34.038
31.232,33.926
31.227,33.816
31.222,33.709
31.218,33.605
31.216,33.503
31.216,33.405
31.22,33.309
31.231,33.217
31.251,33.126
31.285,33.038
31.339,32.952
31.42,32.869
31.536,32.79
31.696,32.714
31.909,32.643
32.183,32.575
32.527,32.51
32.946,32.447
33.443,32.387
34.02,32.33
34.674,32.275
35.397,32.223
36.181,32.175
37.014,32.13
37.881,32.09
38.765,32.054
39.646,32.022
40.506,31.993
41.328,31.968
42.095,31.946
42.792,31.925
43.408,31.904
43.934,31.883
44.364,31.862
44.697,31.84
44.934,31.817
45.078,31.795
45.134,31.774
45.111,31.756
45.016,31.744
44.86,31.74
44.652,31.75
44.402,31.781
44.12,31.838
43.815,31.931
43.494,32.069
43.162,32.26
42.825,32.513
42.486,32.834
42.15,33.226
41.818,33.691
41.492,34.226
41.172,34.827
40.859,35.484
40.551,36.186
40.25,36.92
39.954,37.671
39.662,38.424
39.374,39.163
39.088,39.873
38.803,40.541
38.518,41.153
38.233,41.702
37.948,42.181
37.661,42.585
37.374,42.913
37.087,43.165
36.801,43.345
36.517,43.456
36.237,43.504
35.963,43.495
35.698,43.434
35.443,43.328
35.2,43.184
34.971,43.008
34.758,42.807
34.562,42.587
34.385,42.351
34.225,42.105
34.081,41.851
33.952,41.594
33.839,41.335
33.74,41.077
33.657,40.822
33.588,40.571
33.533,40.324
33.495,40.082
33.474,39.845
33.47,39.613
33.484,39.386
33.518,39.164
33.571,38.946
33.643,38.729
33.735,38.514
33.845,38.3
33.972,38.087
34.114,37.876
34.271,37.667
34.441,37.462
34.622,37.261
34.809,37.064
35.002,36.871
35.196,36.681
35.389,36.494
35.577,36.308
35.755,36.125
35.922,35.942
36.072,35.76
36.204,35.58
36.316,35.402
36.407,35.225
36.474,35.051
36.519,34.881
36.542,34.716
36.545,34.558
36.528,34.406
36.494,34.264
36.442,34.13
36.373,34.008
36.29,33.899
36.193,33.803
36.086,33.723
35.962,33.658
35.82,33.61
35.661,33.58
35.491,33.569
35.316,33.577
35.139,33.606
34.967,33.653
34.801,33.719
34.645,33.801
34.499,33.896
34.364,34.004
34.238,34.122
34.121,34.249
34.012,34.382
33.907,34.519
33.805,34.659
33.705,34.8
33.605,34.939
33.506,35.074
33.407,35.21
33.309,35.347
33.211,35.483
33.114,35.614
33.016,35.736
32.917,35.842
32.818,35.928
32.719,35.992
32.619,36.031
32.519,36.045
32.42,36.034
32.323,36
32.228,35.944
32.138,35.869
32.053,35.778
31.973,35.674
31.9,35.561
31.831,35.442
31.768,35.319
31.711,35.194
31.659,35.068
31.613,34.943
31.571,34.821
31.535,34.702
31.503,34.586
31.475,34.474
31.452,34.365
31.432,34.259
31.415,34.155
31.4,34.053
31.386,33.951
31.372,33.85
31.358,33.748
31.344,33.647
31.329,33.544
31.313,33.441
31.298,33.336
31.285,33.231
31.274,33.125
31.267,33.02
31.264,32.916
31.264,32.814
31.267,32.713
31.273,32.613
31.279,32.515
31.285,32.417
31.291,32.32
31.297,32.224
31.302,32.131
31.307,32.042
31.313,31.958
31.318,31.881
31.325,31.811
31.333,31.749
31.34,31.693
31.347,31.643
31.354,31.599
31.358,31.558
31.36,31.521
31.359,31.486
31.357,31.454
31.352,31.423
31.348,31.395
31.344,31.367
31.34,31.341
31.339,31.314
31.34,31.287
31.341,31.261
31.344,31.234
31.349,31.208
31.358,31.182
31.375,31.158
31.403,31.135
31.447,31.114
31.512,31.095
31.604,31.077
31.734,31.06
31.915,31.044
32.155,31.03
32.464,31.018
32.851,31.009
33.321,31.007
33.878,31.014
34.521,31.034
35.244,31.072
36.04,31.132
36.897,31.221
37.798,31.348
38.727,31.52
39.664,31.748
40.589,32.037
41.482,32.395
42.326,32.826
43.102,33.33
43.799,33.905
44.405,34.545
44.913,35.24
45.32,35.979
45.625,36.745
45.831,37.522
45.944,38.292
45.971,39.039
45.921,39.747
45.804,40.402
45.631,40.993
45.412,41.512
45.156,41.953
44.874,42.315
44.572,42.597
44.257,42.802
43.936,42.932
43.612,42.995
43.291,42.996
42.974,42.944
42.662,42.845
42.358,42.708
42.06,42.54
41.767,42.348
41.48,42.138
41.197,41.914
40.917,41.681
40.639,41.444
40.362,41.205
40.085,40.967
39.809,40.729
39.531,40.493
39.255,40.257
38.98,40.023
38.707,39.791
38.437,39.559
38.169,39.328
37.903,39.097
37.64,38.866
37.38,38.635
37.124,38.405
36.873,38.176
36.626,37.949
36.386,37.726
36.153,37.508
35.931,37.296
35.719,37.09
35.52,36.891
35.336,36.698
35.167,36.51
35.016,36.328
34.884,36.151
34.771,35.976
34.678,35.805
34.604,35.636
34.55,35.469
34.516,35.303
34.5,35.14
34.504,34.979
34.526,34.822
34.566,34.669
34.624,34.522
34.7,34.383
34.794,34.251
34.905,34.13
35.033,34.018
35.177,33.918
35.335,33.83
35.505,33.757
35.684,33.701
35.869,33.664
36.057,33.646
36.243,33.649
36.425,33.67
36.605,33.711
36.782,33.769
36.955,33.844
37.118,33.935
37.266,34.039
37.392,34.157
37.494,34.286
37.568,34.425
37.611,34.573
37.626,34.726
37.612,34.883
37.572,35.041
37.509,35.198
37.425,35.354
37.324,35.505
37.209,35.648
37.084,35.781
36.95,35.901
36.81,36.005
36.665,36.094
36.514,36.165
36.358,36.218
36.196,36.254
36.031,36.272
35.864,36.273
35.697,36.258
35.53,36.228
35.365,36.184
35.202,36.127
35.042,36.058
34.888,35.978
34.739,35.889
34.595,35.791
34.456,35.685
34.323,35.57
34.193,35.45
34.065,35.325
33.938,35.197
33.811,35.067
33.683,34.937
33.555,34.805
33.425,34.673
33.297,34.539
33.171,34.405
33.047,34.269
32.928,34.133
32.813,33.997
32.702,33.862
32.595,33.728
32.491,33.594
32.391,33.461
32.295,33.328
32.202,33.198
32.114,33.068
32.033,32.94
31.959,32.814
31.892,32.69
31.833,32.569
31.782,32.452
31.74,32.342
31.705,32.238
31.679,32.142
31.659,32.053
31.645,31.971
31.635,31.895
31.629,31.825
31.626,31.762
31.624,31.705
31.623,31.655
31.623,31.612
31.622,31.575
31.623,31.544
31.623,31.516
31.623,31.492
31.622,31.47
31.62,31.451
31.616,31.434
31.611,31.419
31.604,31.405
31.597,31.391
31.59,31.377
31.584,31.364
31.58,31.351
31.577,31.339
31.577,31.327
31.578,31.317
31.581,31.307
31.585,31.298
31.59,31.29
31.596,31.284
31.604,31.281
31.613,31.281
31.626,31.286
31.641,31.299
31.656,31.321
31.673,31.356
31.69,31.409
31.708,31.486
31.729,31.594
31.751,31.738
31.774,31.927
31.8,32.169
31.828,32.469
31.858,32.833
31.891,33.263
31.928,33.759
31.972,34.317
32.027,34.93
32.1,35.589
32.195,36.281
32.32,36.992
32.485,37.709
32.698,38.415
32.966,39.097
33.298,39.742
33.701,40.336
34.177,40.872
34.728,41.341
35.353,41.738
36.045,42.06
36.796,42.307
37.593,42.481
38.421,42.585
39.264,42.625
40.105,42.607
40.926,42.539
41.71,42.427
42.444,42.279
43.114,42.102
43.708,41.903
44.22,41.687
44.645,41.46
44.981,41.225
45.228,40.986
45.391,40.745
45.473,40.502
45.483,40.26
45.429,40.019
45.319,39.778
45.163,39.538
44.969,39.296
44.745,39.051
44.497,38.805
44.233,38.557
43.958,38.307
43.674,38.057
43.386,37.808
43.095,37.56
42.803,37.313
42.51,37.07
42.218,36.832
41.925,36.599
41.63,36.372
41.335,36.15
41.039,35.932
40.742,35.721
40.446,35.514
40.153,35.313
39.861,35.117
39.574,34.928
39.29,34.743
39.01,34.563
38.736,34.387
38.468,34.215
38.205,34.047
37.946,33.884
37.691,33.727
37.441,33.576
37.195,33.432
36.954,33.297
36.72,33.174
36.492,33.064
36.271,32.969
36.06,32.893
35.859,32.836
35.671,32.799
35.494,32.782
35.331,32.784
35.182,32.805
35.047,32.845
34.928,32.903
34.825,32.979
34.738,33.072
34.665,33.182
34.608,33.306
34.566,33.444
34.54,33.593
34.532,33.75
34.542,33.913
34.571,34.079
34.617,34.248
34.681,34.415
34.762,34.58
34.86,34.74
34.973,34.892
35.099,35.034
35.236,35.164
35.382,35.28
35.534,35.381
35.688,35.465
35.841,35.531
35.991,35.578
36.136,35.607
36.274,35.617
36.404,35.611
36.526,35.59
36.637,35.556
36.736,35.511
36.822,35.456
36.893,35.393
36.948,35.324
36.986,35.249
37.007,35.168
37.01,35.083
36.994,34.993
36.961,34.899
36.911,34.801
36.845,34.7
36.765,34.597
36.672,34.491
36.569,34.382
36.457,34.273
36.337,34.162
36.21,34.052
36.078,33.941
35.941,33.83
35.801,33.719
35.658,33.608
35.514,33.495
35.369,33.381
35.224,33.264
35.077,33.146
34.93,33.028
34.782,32.911
34.633,32.796
34.485,32.684
34.338,32.577
34.192,32.475
34.05,32.379
33.91,32.288
33.774,32.203
33.64,32.123
33.511,32.049
33.385,31.979
33.264,31.914
33.149,31.853
33.038,31.798
32.932,31.748
32.831,31.705
32.734,31.667
32.641,31.635
32.551,31.607
32.463,31.583
32.379,31.563
32.298,31.544
32.218,31.527
32.141,31.51
32.065,31.494
31.992,31.477
31.921,31.461
31.853,31.445
31.789,31.431
31.727,31.417
31.67,31.405
31.615,31.393
31.565,31.381
31.52,31.37
31.48,31.359
31.446,31.349
31.417,31.342
31.392,31.337
31.374,31.336
31.361,31.337
31.353,31.339
31.35,31.343
31.353,31.348
31.359,31.352
31.369,31.357
31.382,31.362
31.396,31.366
31.411,31.371
31.428,31.375
31.446,31.378
31.465,31.38
31.487,31.379
31.511,31.378
31.537,31.376
31.563,31.376
31.589,31.381
31.615,31.396
31.64,31.426
31.663,31.479
31.683,31.561
31.7,31.681
31.713,31.848
31.723,32.069
31.729,32.351
31.733,32.7
31.738,33.117
31.743,33.605
31.749,34.159
31.757,34.774
31.767,35.439
31.778,36.141
31.793,36.868
31.813,37.602
31.841,38.33
31.879,39.036
31.934,39.705
32.011,40.324
32.12,40.885
32.27,41.378
32.468,41.798
32.724,42.141
33.045,42.407
33.439,42.596
33.91,42.712
34.459,42.757
35.084,42.739
35.776,42.665
36.527,42.545
37.325,42.386
38.152,42.197
38.992,41.986
39.827,41.759
40.639,41.521
41.41,41.277
42.125,41.03
42.771,40.783
43.341,40.537
43.825,40.293
44.223,40.053
44.532,39.815
44.756,39.579
44.898,39.345
44.963,39.111
44.957,38.876
44.89,38.641
44.769,38.405
44.604,38.17
44.404,37.936
44.175,37.704
43.926,37.474
43.662,37.247
43.388,37.023
43.108,36.804
42.824,36.59
42.541,36.38
42.259,36.175
41.978,35.974
41.7,35.78
41.423,35.59
41.146,35.406
40.87,35.226
40.593,35.05
40.316,34.876
40.038,34.704
39.761,34.534
39.483,34.367
39.205,34.203
38.927,34.041
38.65,33.883
38.374,33.73
38.101,33.582
37.83,33.442
37.562,33.312
37.298,33.193
37.037,33.088
36.782,32.997
36.533,32.922
36.292,32.863
36.059,32.822
35.834,32.798
35.619,32.793
35.414,32.805
35.22,32.836
35.038,32.882
34.869,32.944
34.715,33.019
34.577,33.108
34.457,33.208
34.357,33.318
34.278,33.437
34.22,33.562
34.183,33.693
34.17,33.829
34.179,33.967
34.211,34.108
34.265,34.249
34.342,34.389
34.439,34.524
34.557,34.652
34.691,34.773
34.841,34.884
35.003,34.984
35.175,35.072
35.356,35.146
35.541,35.207
35.728,35.255
35.915,35.289
36.099,35.309
36.275,35.318
36.442,35.314
36.596,35.299
36.736,35.272
36.859,35.234
36.965,35.187
37.051,35.131
37.119,35.067
37.167,34.998
37.197,34.926
37.21,34.849
37.207,34.771
37.189,34.69
37.156,34.607
37.11,34.523
37.051,34.436
36.98,34.347
36.898,34.255
36.805,34.161
36.7,34.066
36.584,33.97
36.458,33.875
36.323,33.78
36.182,33.686
36.035,33.593
35.884,33.501
35.731,33.41
35.578,33.319
35.425,33.228
35.273,33.137
35.124,33.046
34.977,32.954
34.833,32.864
34.692,32.775
34.552,32.689
34.415,32.605
34.277,32.525
34.14,32.449
34.003,32.376
33.866,32.308
33.73,32.244
33.596,32.184
33.467,32.129
33.343,32.078
33.226,32.032
33.116,31.989
33.014,31.95
32.918,31.914
32.828,31.881
32.742,31.852
32.661,31.826
32.584,31.805
32.511,31.789
32.441,31.778
32.376,31.77
32.317,31.764
32.264,31.761
32.217,31.759
32.176,31.759
32.141,31.76
32.11,31.761
32.083,31.761
32.058,31.761
32.035,31.761
32.012,31.762
31.991,31.763
31.97,31.765
31.949,31.766
31.93,31.768
31.912,31.769
31.897,31.771
31.885,31.773
31.876,31.776
31.871,31.78
31.87,31.784
31.872,31.788
31.876,31.789
31.879,31.79
31.881,31.788
31.88,31.786
31.878,31.782
31.874,31.779
31.87,31.777
31.867,31.779
31.867,31.786
31.876,31.802
31.895,31.831
31.931,31.881
31.988,31.957
32.075,32.068
32.198,32.22
32.367,32.423
32.59,32.683
32.876,33.006
33.23,33.393
33.656,33.845
34.156,34.359
34.728,34.929
35.368,35.544
36.067,36.194
36.814,36.863
37.593,37.537
38.39,38.2
39.186,38.839
39.966,39.441
40.712,39.994
41.411,40.489
42.05,40.921
42.619,41.284
43.112,41.577
43.522,41.799
43.849,41.952
44.094,42.041
44.258,42.071
44.348,42.047
44.369,41.977
44.329,41.867
44.237,41.726
44.099,41.558
43.925,41.372
43.723,41.171
43.502,40.959
43.269,40.74
43.029,40.516
42.785,40.287
42.538,40.055
42.287,39.823
42.034,39.591
41.776,39.361
41.515,39.134
41.248,38.909
40.977,38.688
40.701,38.469
40.42,38.254
40.136,38.043
39.848,37.835
39.558,37.631
39.268,37.43
38.982,37.233
38.7,37.041
38.424,36.853
38.153,36.67
37.888,36.493
37.628,36.323
37.372,36.159
37.12,36.001
36.872,35.851
36.627,35.706
36.385,35.566
36.147,35.43
35.912,35.298
35.682,35.169
35.458,35.044
35.241,34.923
35.032,34.806
34.833,34.695
34.645,34.59
34.468,34.492
34.306,34.404
34.16,34.329
34.033,34.269
33.927,34.225
33.843,34.198
33.783,34.19
33.746,34.199
33.735,34.226
33.749,34.271
33.786,34.333
33.846,34.41
33.925,34.501
34.024,34.606
34.14,34.723
34.272,34.851
34.419,34.986
34.577,35.127
34.745,35.27
34.921,35.412
35.102,35.552
35.284,35.689
35.467,35.819
35.648,35.943
35.825,36.058
35.995,36.164
36.153,36.26
36.299,36.346
36.43,36.423
36.542,36.489
36.634,36.544
36.704,36.587
36.752,36.619
36.777,36.639
36.78,36.647
36.763,36.642
36.729,36.626
36.677,36.599
36.612,36.563
36.535,36.518
36.449,36.464
36.355,36.402
36.255,36.332
36.148,36.255
36.035,36.17
35.916,36.079
35.792,35.981
35.662,35.877
35.526,35.768
35.384,35.654
35.238,35.536
35.089,35.414
34.937,35.29
34.783,35.164
34.628,35.04
34.474,34.917
34.322,34.795
34.172,34.676
34.027,34.56
33.885,34.446
33.747,34.333
33.614,34.223
33.483,34.114
33.355,34.007
33.229,33.9
33.105,33.793
32.984,33.689
32.867,33.586
32.753,33.486
32.645,33.389
32.542,33.293
32.443,33.199
32.349,33.108
32.259,33.018
32.173,32.932
32.091,32.848
32.014,32.768
31.941,32.692
31.873,32.621
31.811,32.553
31.756,32.491
31.707,32.434
31.666,32.383
31.63,32.337
31.601,32.296
31.577,32.259
31.558,32.226
31.541,32.197
31.526,32.171
31.511,32.148
31.497,32.129
31.483,32.112
31.469,32.096
31.456,32.081
31.445,32.065
31.436,32.049
31.429,32.031
31.424,32.013
31.423,31.994
31.424,31.976
31.426,31.957
31.431,31.94
31.436,31.925
31.442,31.912
31.448,31.902
31.455,31.895
31.463,31.891
31.474,31.889
31.487,31.89
31.503,31.892
31.522,31.895
31.546,31.899
31.575,31.903
31.61,31.907
31.653,31.909
31.706,31.909
31.774,31.909
31.861,31.909
31.974,31.907
32.121,31.906
32.312,31.903
32.554,31.901
32.859,31.9
33.232,31.903
33.679,31.914
34.201,31.94
34.796,31.986
35.457,32.06
36.175,32.171
36.937,32.325
37.73,32.53
38.535,32.791
39.338,33.112
40.121,33.493
40.87,33.935
41.569,34.433
42.209,34.98
42.78,35.568
43.275,36.184
43.692,36.818
44.028,37.454
44.284,38.08
44.464,38.682
44.573,39.25
44.616,39.773
44.599,40.243
44.531,40.655
44.418,41.005
44.268,41.289
44.087,41.508
43.88,41.662
43.653,41.755
43.41,41.79
43.156,41.771
42.892,41.706
42.622,41.601
42.349,41.463
42.073,41.299
41.796,41.116
41.52,40.918
41.244,40.712
40.969,40.501
40.695,40.287
40.423,40.075
40.152,39.865
39.883,39.658
39.617,39.455
39.355,39.255
39.097,39.057
38.845,38.861
38.6,38.665
38.362,38.468
38.132,38.271
37.909,38.074
37.693,37.877
37.482,37.68
37.275,37.483
37.072,37.288
36.869,37.095
36.666,36.904
36.462,36.718
36.257,36.536
36.052,36.36
35.85,36.189
35.652,36.024
35.462,35.865
35.282,35.71
35.116,35.56
34.967,35.413
34.836,35.27
34.725,35.13
34.636,34.994
34.567,34.859
34.518,34.728
34.489,34.599
34.479,34.471
34.487,34.344
34.512,34.218
34.553,34.095
34.609,33.975
34.678,33.86
34.76,33.751
34.856,33.648
34.966,33.553
35.088,33.468
35.223,33.392
35.368,33.327
35.521,33.275
35.679,33.237
35.841,33.213
36.001,33.203
36.158,33.206
36.308,33.223
36.447,33.253
36.574,33.295
36.684,33.349
36.776,33.414
36.847,33.49
36.896,33.575
36.925,33.668
36.934,33.769
36.925,33.874
36.898,33.983
36.856,34.093
36.799,34.203
36.728,34.31
36.645,34.413
36.551,34.511
36.449,34.602
36.338,34.686
36.22,34.761
36.095,34.828
35.965,34.884
35.831,34.931
35.694,34.967
35.554,34.992
35.414,35.008
35.272,35.014
35.13,35.009
34.987,34.995
34.844,34.971
34.701,34.938
34.557,34.895
34.415,34.845
34.274,34.788
34.134,34.726
33.995,34.661
33.856,34.592
33.718,34.521
33.579,34.447
33.442,34.372
33.307,34.293
33.175,34.212
33.047,34.129
32.923,34.043
32.805,33.957
32.691,33.87
32.584,33.784
32.484,33.698
32.392,33.614
32.307,33.53
32.229,33.447
32.158,33.363
32.093,33.278
32.033,33.192
31.977,33.105
31.924,33.016
31.874,32.926
31.826,32.837
31.781,32.749
31.739,32.664
31.698,32.582
31.66,32.502
31.624,32.425
31.591,32.349
31.562,32.276
31.537,32.205
31.516,32.137
31.498,32.073
31.483,32.013
31.47,31.957
31.458,31.904
31.446,31.855
31.437,31.808
31.429,31.765
31.425,31.723
31.425,31.684
31.43,31.647
31.441,31.612
31.457,31.579
31.477,31.548
31.499,31.521
31.524,31.496
31.549,31.474
31.577,31.455
31.605,31.438
31.635,31.423
31.666,31.411
31.697,31.401
31.726,31.394
31.754,31.39
31.779,31.389
31.8,31.392
31.816,31.397
31.825,31.404
31.83,31.412
31.831,31.42
31.828,31.428
31.825,31.436
31.821,31.445
31.82,31.454
31.826,31.463
31.842,31.472
31.875,31.481
31.93,31.49
32.014,31.499
32.134,31.507
32.301,31.517
32.52,31.527
32.8,31.537
33.147,31.548
33.567,31.56
34.063,31.573
34.635,31.587
35.276,31.602
35.98,31.618
36.734,31.633
37.524,31.647
38.333,31.661
39.144,31.672
39.94,31.682
40.704,31.689
41.422,31.694
42.08,31.697
42.669,31.698
43.18,31.697
43.611,31.694
43.958,31.688
44.223,31.681
44.409,31.677
44.52,31.679
44.561,31.691
44.541,31.718
44.466,31.764
44.345,31.837
44.186,31.942
43.995,32.089
43.78,32.285
43.546,32.537
43.298,32.853
43.039,33.236
42.774,33.689
42.505,34.21
42.233,34.793
41.959,35.432
41.684,36.112
41.409,36.822
41.135,37.543
40.861,38.261
40.591,38.958
40.323,39.618
40.06,40.23
39.801,40.781
39.546,41.263
39.297,41.671
39.053,42.002
38.815,42.254
38.582,42.43
38.354,42.534
38.13,42.572
37.911,42.549
37.694,42.475
37.479,42.358
37.265,42.205
37.052,42.025
36.838,41.825
36.625,41.609
36.414,41.382
36.205,41.15
36.001,40.914
35.802,40.677
35.611,40.439
35.43,40.201
35.262,39.964
35.107,39.727
34.968,39.489
34.846,39.25
34.74,39.01
34.652,38.77
34.579,38.53
34.523,38.291
34.483,38.053
34.459,37.818
34.451,37.586
34.46,37.357
34.485,37.133
34.528,36.912
34.589,36.696
34.668,36.484
34.763,36.277
34.873,36.076
34.996,35.881
35.129,35.692
35.27,35.509
35.416,35.33
35.564,35.156
35.71,34.986
35.853,34.819
35.989,34.656
36.118,34.495
36.236,34.337
36.342,34.183
36.433,34.033
36.509,33.887
36.568,33.748
36.61,33.616
36.634,33.493
36.642,33.379
36.633,33.276
36.608,33.183
36.568,33.102
36.513,33.034
36.444,32.982
36.363,32.945
36.269,32.927
36.165,32.928
36.053,32.946
35.933,32.982
35.81,33.035
35.683,33.105
35.555,33.19
35.426,33.29
35.298,33.402
35.17,33.527
35.041,33.662
34.912,33.807
34.781,33.96
34.648,34.119
34.512,34.281
34.373,34.445
34.232,34.608
34.091,34.767
33.952,34.921
33.815,35.067
33.681,35.202
33.552,35.325
33.426,35.436
33.305,35.532
33.186,35.614
33.069,35.682
32.952,35.735
32.837,35.773
32.723,35.797
32.612,35.807
32.504,35.803
32.4,35.785
32.303,35.755
32.212,35.713
32.128,35.66
32.051,35.598
31.98,35.527
31.915,35.45
31.854,35.369
31.796,35.284
31.74,35.196
31.684,35.107
31.629,35.016
31.576,34.924
31.525,34.83
31.478,34.734
31.435,34.636
31.397,34.535
31.365,34.433
31.338,34.329
31.316,34.224
31.297,34.118
31.283,34.012
31.271,33.904
31.263,33.797
31.259,33.689
31.257,33.582
31.257,33.476
31.258,33.371
31.263,33.268
31.27,33.166
31.279,33.065
31.292,32.966
31.307,32.869
31.324,32.775
31.342,32.682
31.359,32.592
31.377,32.504
31.396,32.42
31.416,32.34
31.439,32.265
31.466,32.194
31.498,32.128
31.534,32.066
31.573,32.008
31.614,31.954
31.656,31.904
31.696,31.86
31.736,31.82
31.774,31.785
31.809,31.754
31.84,31.725
31.868,31.7
31.89,31.677
31.909,31.657
31.922,31.639
31.929,31.623
31.932,31.609
31.928,31.596
31.92,31.585
31.908,31.576
31.891,31.567
31.871,31.561
31.848,31.555
31.822,31.551
31.795,31.548
31.768,31.547
31.744,31.547
31.726,31.55
31.716,31.556
31.718,31.565
31.737,31.578
31.778,31.593
31.85,31.611
31.96,31.63
32.118,31.649
32.333,31.669
32.613,31.687
32.968,31.704
33.401,31.719
33.917,31.733
34.513,31.746
35.183,31.757
35.918,31.767
36.704,31.775
37.524,31.782
38.363,31.786
39.2,31.788
40.019,31.789
40.802,31.789
41.533,31.79
42.201,31.793
42.793,31.799
43.303,31.81
43.725,31.83
44.059,31.862
44.306,31.908
44.471,31.974
44.56,32.065
44.579,32.189
44.536,32.352
44.439,32.564
44.296,32.83
44.116,33.155
43.906,33.542
43.673,33.992
43.422,34.5
43.16,35.061
42.891,35.664
42.618,36.298
42.344,36.949
42.069,37.603
41.796,38.244
41.525,38.861
41.256,39.439
40.988,39.969
40.722,40.442
40.455,40.853
40.188,41.196
39.92,41.471
39.649,41.678
39.377,41.819
39.104,41.898
38.829,41.92
38.554,41.892
38.28,41.819
38.009,41.71
37.744,41.57
37.485,41.407
37.235,41.224
36.994,41.028
36.764,40.821
36.545,40.607
36.336,40.39
36.136,40.172
35.945,39.954
35.763,39.736
35.588,39.519
35.421,39.3
35.261,39.08
35.11,38.857
34.965,38.632
34.83,38.404
34.704,38.175
34.591,37.944
34.493,37.713
34.411,37.481
34.347,37.25
34.302,37.02
34.279,36.79
34.278,36.562
34.299,36.337
34.341,36.116
34.403,35.9
34.482,35.688
34.577,35.48
34.686,35.275
34.807,35.073
34.938,34.874
35.077,34.68
35.222,34.49
35.371,34.304
35.522,34.122
35.673,33.944
35.82,33.771
35.962,33.603
36.097,33.441
36.221,33.287
36.332,33.143
36.429,33.009
36.51,32.888
36.574,32.781
36.62,32.691
36.648,32.621
36.659,32.571
36.653,32.541
36.629,32.532
36.589,32.544
36.533,32.575
36.463,32.625
36.38,32.693
36.286,32.781
36.182,32.887
36.07,33.011
35.951,33.151
35.825,33.305
35.693,33.472
35.556,33.649
35.415,33.834
35.272,34.024
35.128,34.217
34.984,34.41
34.84,34.601
34.698,34.785
34.557,34.962
34.418,35.128
34.282,35.281
34.148,35.422
34.017,35.549
33.889,35.661
33.762,35.756
33.638,35.836
33.516,35.899
33.396,35.947
33.278,35.979
33.161,35.994
33.044,35.994
32.928,35.98
32.814,35.952
32.702,35.914
32.593,35.866
32.487,35.812
32.385,35.751
32.287,35.685
32.193,35.615
32.102,35.542
32.014,35.467
31.928,35.387
31.846,35.304
31.767,35.216
31.692,35.123
31.621,35.025
31.554,34.923
31.491,34.817
31.433,34.71
31.38,34.602
31.332,34.494
31.288,34.387
31.25,34.28
31.218,34.175
31.19,34.069
31.168,33.964
31.15,33.858
31.137,33.753
31.129,33.647
31.125,33.542
31.125,33.438
31.128,33.336
31.133,33.237
31.14,33.14
31.148,33.046
31.158,32.954
31.17,32.864
31.184,32.776
31.202,32.692
31.221,32.61
31.241,32.53
31.263,32.453
31.284,32.381
31.305,32.314
31.324,32.254
31.341,32.2
31.358,32.152
31.376,32.112
31.395,32.077
31.416,32.047
31.439,32.021
31.465,32
31.494,31.982
31.524,31.968
31.554,31.957
31.581,31.947
31.606,31.938
31.629,31.928
31.649,31.918
31.668,31.909
31.684,31.9
31.699,31.893
31.713,31.887
31.726,31.882
31.737,31.878
31.748,31.876
31.758,31.877
31.765,31.88
31.767,31.885
31.765,31.892
31.759,31.9
31.747,31.908
31.733,31.916
31.717,31.924
31.701,31.931
31.685,31.938
31.669,31.944
31.653,31.947
31.638,31.949
31.624,31.949
31.61,31.949
31.597,31.949
31.586,31.95
31.58,31.954
31.584,31.963
31.603,31.98
31.646,32.009
31.72,32.055
31.834,32.127
32,32.231
32.225,32.378
32.52,32.574
32.892,32.828
33.347,33.146
33.887,33.533
34.509,33.987
35.207,34.508
35.97,35.089
36.783,35.721
37.631,36.393
38.494,37.09
39.354,37.797
40.194,38.498
40.997,39.178
41.746,39.822
42.429,40.418
43.034,40.957
43.554,41.431
43.983,41.835
44.321,42.166
44.567,42.424
44.726,42.609
44.804,42.725
44.806,42.777
44.743,42.771
44.623,42.715
44.456,42.615
44.249,42.478
44.012,42.312
43.75,42.124
43.472,41.92
43.182,41.705
42.884,41.483
42.583,41.256
42.28,41.027
41.978,40.798
41.677,40.569
41.378,40.342
41.081,40.116
40.787,39.892
40.497,39.671
40.21,39.452
39.926,39.235
39.643,39.019
39.363,38.803
39.085,38.587
38.809,38.37
38.536,38.153
38.264,37.936
37.996,37.718
37.732,37.5
37.473,37.284
37.219,37.069
36.97,36.858
36.726,36.651
36.488,36.448
36.255,36.249
36.026,36.054
35.802,35.861
35.582,35.672
35.367,35.484
35.156,35.299
34.953,35.115
34.757,34.933
34.574,34.753
34.405,34.575
34.252,34.401
34.118,34.231
34.003,34.066
33.909,33.909
33.837,33.759
33.787,33.62
33.758,33.491
33.752,33.377
33.768,33.279
33.804,33.199
33.858,33.138
33.93,33.097
34.018,33.077
34.121,33.078
34.239,33.101
34.371,33.145
34.514,33.208
34.667,33.289
34.829,33.388
34.996,33.502
35.166,33.631
35.336,33.771
35.501,33.923
35.659,34.083
35.807,34.249
35.944,34.42
36.066,34.594
36.173,34.767
36.263,34.939
36.337,35.108
36.392,35.27
36.43,35.422
36.452,35.563
36.457,35.69
36.446,35.802
36.419,35.898
36.375,35.978
36.316,36.041
36.24,36.089
36.15,36.121
36.047,36.138
35.933,36.142
35.81,36.132
35.682,36.111
35.549,36.078
35.414,36.036
35.277,35.984
35.14,35.923
35.004,35.853
34.867,35.776
34.731,35.693
34.595,35.605
34.459,35.513
34.321,35.42
34.181,35.324
34.039,35.227
33.894,35.128
33.748,35.027
33.603,34.924
33.46,34.819
33.32,34.712
33.185,34.603
33.056,34.494
32.934,34.384
32.816,34.274
32.702,34.163
32.592,34.051
32.486,33.938
32.382,33.826
32.28,33.714
32.182,33.604
32.088,33.496
31.998,33.391
31.913,33.286
31.833,33.182
31.759,33.08
31.689,32.979
31.624,32.879
31.564,32.782
31.506,32.686
31.451,32.592
31.398,32.5
31.346,32.41
31.296,32.324
31.247,32.242
31.2,32.164
31.158,32.089
31.121,32.017
31.09,31.948
31.064,31.882
31.041,31.82
31.022,31.761
31.005,31.706
30.989,31.654
30.973,31.605
30.958,31.556
30.945,31.509
30.935,31.462
30.928,31.416
30.926,31.37
30.929,31.324
30.936,31.278
30.947,31.232
30.962,31.186
30.979,31.141
30.999,31.098
31.02,31.056
31.04,31.014
31.06,30.974
31.08,30.933
31.1,30.893
31.12,30.854
31.141,30.816
31.165,30.781
31.19,30.748
31.216,30.717
31.242,30.688
31.267,30.659
31.292,30.632
31.315,30.605
31.335,30.581
31.352,30.559
31.366,30.539
31.378,30.522
31.388,30.509
31.396,30.499
31.403,30.493
31.409,30.492
31.413,30.495
31.416,30.502
31.418,30.513
31.422,30.528
31.43,30.547
31.441,30.571
31.455,30.6
31.469,30.633
31.482,30.669
31.494,30.708
31.502,30.746
31.506,30.784
31.507,30.819
31.504,30.85
31.498,30.879
31.492,30.904
31.488,30.926
31.489,30.945
31.499,30.962
31.524,30.977
31.57,30.99
31.646,31.004
31.762,31.021
31.926,31.045
32.148,31.081
32.439,31.136
32.804,31.215
33.25,31.327
33.779,31.479
34.389,31.68
35.076,31.939
35.831,32.263
36.64,32.657
37.489,33.126
38.358,33.672
39.229,34.292
40.084,34.979
40.902,35.725
41.668,36.515
42.367,37.336
42.987,38.17
43.52,38.999
43.962,39.805
44.309,40.573
44.564,41.288
44.728,41.938
44.808,42.513
44.81,43.007
44.741,43.415
44.612,43.738
44.432,43.975
44.209,44.131
43.954,44.211
43.673,44.224
43.372,44.176
43.057,44.076
42.732,43.933
42.401,43.755
42.066,43.548
41.73,43.321
41.394,43.078
41.057,42.825
40.72,42.565
40.383,42.301
40.046,42.035
39.71,41.769
39.374,41.504
39.041,41.24
38.712,40.979
38.39,40.719
38.076,40.46
37.772,40.203
37.478,39.946
37.195,39.689
36.923,39.432
36.662,39.175
36.409,38.917
36.164,38.658
35.925,38.398
35.692,38.137
35.463,37.878
35.239,37.619
35.02,37.363
34.808,37.11
34.604,36.86
34.409,36.615
34.227,36.376
34.058,36.142
33.904,35.914
33.768,35.691
33.651,35.474
33.554,35.262
33.479,35.056
33.424,34.855
33.392,34.661
33.38,34.472
33.389,34.289
33.418,34.112
33.468,33.941
33.538,33.778
33.628,33.626
33.739,33.486
33.868,33.361
34.017,33.252
34.182,33.159
34.361,33.084
34.552,33.027
34.75,32.99
34.952,32.973
35.155,32.976
35.357,33.001
35.553,33.048
35.743,33.117
35.923,33.208
36.091,33.32
36.245,33.452
36.383,33.603
36.503,33.769
36.603,33.95
36.681,34.143
36.737,34.345
36.77,34.553
36.782,34.765
36.772,34.977
36.742,35.188
36.694,35.393
36.631,35.592
36.554,35.782
36.466,35.96
36.367,36.124
36.261,36.273
36.147,36.405
36.027,36.52
35.902,36.617
35.773,36.695
35.64,36.756
35.504,36.799
35.365,36.824
35.223,36.833
35.078,36.826
34.93,36.804
34.782,36.77
34.634,36.724
34.487,36.669
34.34,36.605
34.196,36.533
34.053,36.454
33.912,36.368
33.775,36.275
33.642,36.176
33.512,36.073
33.387,35.967
33.265,35.858
33.147,35.747
33.034,35.635
32.926,35.52
32.821,35.404
32.721,35.286
32.626,35.167
32.534,35.047
32.446,34.928
32.363,34.808
32.284,34.689
32.208,34.571
32.137,34.454
32.068,34.338
32.002,34.224
31.938,34.111
31.874,33.998
31.812,33.886
31.751,33.776
31.692,33.666
31.638,33.559
31.587,33.454
31.542,33.351
31.501,33.251
31.464,33.152
31.43,33.055
31.4,32.959
31.374,32.866
31.351,32.777
31.332,32.691
31.317,32.61
31.306,32.533
31.3,32.46
31.298,32.393
31.3,32.329
31.306,32.271
31.313,32.216
31.321,32.165
31.329,32.117
31.337,32.07
31.342,32.026
31.344,31.983
31.344,31.942
31.34,31.902
31.335,31.864
31.327,31.828
31.318,31.793
31.309,31.761
31.301,31.731
31.295,31.705
31.291,31.682
31.291,31.662
31.299,31.645
31.32,31.63
31.358,31.618
31.421,31.608
31.518,31.6
31.657,31.595
31.849,31.593
32.101,31.593
32.422,31.595
32.818,31.599
33.292,31.604
33.844,31.61
34.472,31.618
35.168,31.626
35.921,31.635
36.719,31.645
37.544,31.654
38.38,31.662
39.207,31.67
40.009,31.677
40.77,31.684
41.476,31.689
42.113,31.694
42.672,31.697
43.146,31.7
43.532,31.703
43.828,31.705
44.036,31.709
44.16,31.712
44.207,31.718
44.182,31.724
44.096,31.731
43.957,31.74
43.776,31.75
43.561,31.76
43.321,31.771
43.063,31.783
42.792,31.795
42.514,31.807
42.232,31.82
41.949,31.831
41.666,31.842
41.383,31.851
41.101,31.86
40.818,31.87
40.534,31.879
40.25,31.887
39.965,31.894
39.678,31.899
39.389,31.902
39.098,31.904
38.803,31.904
38.506,31.904
38.207,31.903
37.908,31.904
37.61,31.905
37.314,31.908
37.023,31.912
36.737,31.919
36.458,31.93
36.186,31.946
35.922,31.972
35.664,32.012
35.415,32.071
35.174,32.158
34.94,32.283
34.715,32.454
34.498,32.68
34.289,32.971
34.09,33.333
33.902,33.768
33.725,34.278
33.562,34.859
33.416,35.505
33.289,36.207
33.185,36.954
33.103,37.73
33.044,38.519
33.009,39.305
32.999,40.071
33.013,40.803
33.053,41.487
33.118,42.112
33.205,42.669
33.315,43.151
33.444,43.556
33.59,43.881
33.752,44.128
33.926,44.301
34.11,44.404
34.301,44.444
34.496,44.428
34.694,44.364
34.891,44.258
35.086,44.119
35.273,43.954
35.453,43.767
35.622,43.564
35.779,43.349
35.923,43.124
36.051,42.894
36.164,42.661
36.259,42.426
36.334,42.191
36.388,41.957
36.422,41.724
36.434,41.492
36.427,41.26
36.401,41.028
36.357,40.797
36.298,40.566
36.225,40.336
36.139,40.107
36.043,39.879
35.937,39.651
35.823,39.424
35.703,39.197
35.578,38.97
35.45,38.743
35.318,38.518
35.184,38.295
35.046,38.073
34.904,37.855
34.759,37.639
34.609,37.426
34.455,37.218
34.295,37.015
34.133,36.819
33.97,36.629
33.807,36.447
33.648,36.27
33.494,36.1
33.347,35.936
33.208,35.776
33.077,35.622
32.953,35.473
32.836,35.331
32.723,35.196
32.615,35.069
32.51,34.952
32.408,34.845
32.311,34.75
32.217,34.667
32.127,34.596
32.042,34.541
31.962,34.5
31.887,34.474
31.817,34.464
31.751,34.469
31.687,34.49
31.625,34.525
31.564,34.575
31.503,34.639
31.443,34.715
31.385,34.803
31.328,34.901
31.275,35.009
31.226,35.124
31.182,35.246
31.146,35.373
31.118,35.505
31.098,35.641
31.084,35.777
31.075,35.913
31.069,36.047
31.064,36.176
31.06,36.298
31.057,36.412
31.054,36.517
31.051,36.612
31.051,36.695
31.053,36.767
31.057,36.825
31.062,36.87
31.068,36.901
31.073,36.918
31.079,36.922
31.084,36.912
31.088,36.889
31.09,36.854
31.092,36.808
31.093,36.751
31.095,36.685
31.098,36.61
31.103,36.528
31.108,36.441
31.115,36.35
31.122,36.256
31.129,36.16
31.136,36.064
31.143,35.966
31.151,35.867
31.161,35.767
31.175,35.667
31.195,35.565
31.227,35.462
31.274,35.359
31.343,35.258
31.441,35.156
31.579,35.056
31.767,34.956
32.015,34.856
32.332,34.758
32.726,34.66
33.202,34.561
33.761,34.463
34.401,34.363
35.119,34.264
35.903,34.166
36.74,34.07
37.613,33.976
38.505,33.885
39.395,33.797
40.264,33.713
41.094,33.633
41.867,33.559
42.57,33.49
43.192,33.426
43.723,33.367
44.161,33.312
44.504,33.26
44.755,33.21
44.917,33.163
44.997,33.118
45.003,33.076
44.942,33.035
44.824,32.996
44.658,32.958
44.453,32.922
44.217,32.887
43.957,32.855
43.68,32.823
43.392,32.792
43.097,32.762
42.801,32.733
42.503,32.705
42.207,32.681
41.91,32.659
41.615,32.64
41.321,32.623
41.028,32.61
40.735,32.599
40.443,32.591
40.15,32.586
39.858,32.583
39.566,32.584
39.277,32.587
38.989,32.592
38.706,32.597
38.428,32.604
38.154,32.61
37.885,32.615
37.622,32.619
37.363,32.621
37.111,32.623
36.864,32.624
36.623,32.626
36.388,32.628
36.159,32.63
35.936,32.633
35.718,32.636
35.508,32.64
35.305,32.643
35.112,32.647
34.928,32.652
34.757,32.657
34.597,32.662
34.453,32.668
34.323,32.673
34.209,32.679
34.11,32.682
34.028,32.685
33.963,32.686
33.915,32.686
33.885,32.685
33.874,32.684
33.883,32.683
33.912,32.684
33.963,32.692
34.034,32.71
34.126,32.743
34.237,32.798
34.366,32.881
34.509,33
34.664,33.163
34.828,33.378
34.997,33.652
35.17,33.99
35.344,34.395
35.515,34.868
35.684,35.405
35.846,36.003
36,36.652
36.145,37.34
36.279,38.054
36.402,38.78
36.511,39.501
36.606,40.203
36.685,40.87
36.748,41.489
36.792,42.05
36.817,42.543
36.822,42.963
36.807,43.309
36.772,43.578
36.717,43.773
36.643,43.897
36.553,43.957
36.447,43.958
36.326,43.907
36.194,43.811
36.052,43.677
35.902,43.513
35.748,43.326
35.591,43.123
35.434,42.909
35.277,42.687
35.123,42.461
34.971,42.235
34.823,42.008
34.677,41.783
34.535,41.558
34.393,41.332
34.253,41.107
34.112,40.88
33.972,40.653
33.834,40.426
33.699,40.197
33.568,39.969
33.442,39.739
33.321,39.51
33.206,39.28
33.096,39.049
32.991,38.818
32.888,38.588
32.788,38.36
32.688,38.135
32.589,37.913
32.491,37.696
32.392,37.484
32.293,37.278
32.195,37.078
32.099,36.885
32.005,36.699
31.915,36.52
31.829,36.347
31.747,36.179
31.671,36.013
31.6,35.85
31.535,35.689
31.475,35.53
31.421,35.372
31.372,35.217
31.329,35.066
31.291,34.92
31.258,34.781
31.229,34.651
31.204,34.532
31.181,34.423
31.162,34.328
31.144,34.245
31.13,34.174
31.117,34.116
31.105,34.071
31.096,34.041
31.09,34.026
31.086,34.027
31.084,34.044
31.084,34.078
31.085,34.127
31.089,34.191
31.096,34.27
31.105,34.362
31.116,34.466
31.129,34.58
31.145,34.703
31.162,34.832
31.18,34.966
31.198,35.105
31.216,35.246
31.232,35.389
31.247,35.533
31.259,35.676
31.269,35.815
31.277,35.949
31.284,36.073
31.29,36.187
31.296,36.289
31.304,36.376
31.317,36.449
31.337,36.508
31.367,36.551
31.413,36.58
31.479,36.594
31.571,36.594
31.697,36.582
31.864,36.558
32.081,36.524
32.36,36.48
32.709,36.427
33.134,36.367
33.642,36.298
34.233,36.222
34.904,36.14
35.649,36.05
36.458,35.956
37.315,35.858
38.202,35.758
39.101,35.657
39.989,35.554
40.848,35.451
41.659,35.346
42.406,35.239
43.075,35.131
43.657,35.023
44.145,34.914
44.536,34.806
44.831,34.697
45.031,34.587
45.143,34.477
45.172,34.366
45.128,34.257
45.02,34.147
44.858,34.039
44.652,33.933
44.412,33.827
44.144,33.722
43.858,33.619
43.558,33.519
43.25,33.423
42.938,33.331
42.623,33.244
42.308,33.161
41.994,33.085
41.682,33.014
41.37,32.949
41.058,32.89
40.748,32.835
40.438,32.786
40.131,32.739
39.826,32.696
39.523,32.655
39.224,32.616
38.928,32.58
38.638,32.545
38.354,32.509
38.076,32.473
37.804,32.437
37.537,32.4
37.278,32.363
37.027,32.326
36.787,32.289
36.554,32.253
36.327,32.217
36.106,32.181
35.888,32.147
35.675,32.114
35.466,32.084
35.262,32.056
35.065,32.032
34.877,32.01
34.7,31.992
34.535,31.977
34.384,31.965
34.248,31.955
34.127,31.948
34.021,31.941
33.931,31.935
33.857,31.929
33.801,31.924
33.763,31.92
33.745,31.917
33.748,31.915
33.773,31.912
33.82,31.908
33.89,31.902
33.982,31.895
34.095,31.887
34.227,31.879
34.375,31.87
34.538,31.863
34.713,31.856
34.895,31.85
35.083,31.846
35.272,31.843
35.46,31.841
35.641,31.84
35.813,31.839
35.973,31.841
36.119,31.847
36.25,31.862
36.364,31.892
36.46,31.943
36.539,32.026
36.601,32.146
36.646,32.315
36.672,32.538
36.681,32.821
36.672,33.17
36.646,33.585
36.603,34.065
36.544,34.607
36.47,35.202
36.382,35.841
36.282,36.513
36.171,37.205
36.051,37.903
35.924,38.593
35.789,39.262
35.649,39.898
35.504,40.49
35.355,41.029
35.203,41.508
35.049,41.923
34.892,42.27
34.735,42.549
34.578,42.76
34.424,42.907
34.273,42.992
34.125,43.02
33.982,42.998
33.842,42.93
33.706,42.824
33.573,42.685
33.442,42.519
33.313,42.333
33.187,42.131
33.063,41.917
32.941,41.695
32.822,41.468
32.706,41.24
32.595,41.012
32.488,40.787
32.387,40.564
32.291,40.344
32.2,40.127
32.115,39.911
32.034,39.697
31.957,39.483
31.883,39.268
31.812,39.052
31.742,38.836
31.673,38.619
31.605,38.401
31.539,38.183
31.476,37.964
31.419,37.744
31.369,37.524
31.328,37.303
31.294,37.083
31.267,36.865
31.245,36.648
31.225,36.435
31.206,36.224
31.188,36.017
31.171,35.813
31.154,35.612
31.138,35.414
31.124,35.218
31.112,35.025
31.103,34.835
31.098,34.648
31.096,34.467
31.097,34.294
31.1,34.13
31.104,33.977
31.108,33.838
31.109,33.714
31.109,33.607
31.107,33.517
31.103,33.443
31.099,33.387
31.095,33.347
31.091,33.325
31.088,33.32
31.087,33.333
31.085,33.363
31.084,33.409
31.082,33.472
31.08,33.55
31.076,33.644
31.071,33.751
31.066,33.872
31.06,34.004
31.056,34.146
31.054,34.296
31.055,34.45
31.063,34.608
31.079,34.767
31.106,34.925
31.147,35.08
31.207,35.23
31.292,35.375
31.408,35.511
31.563,35.64
31.766,35.758
32.027,35.864
32.355,35.959
32.757,36.04
33.237,36.108
33.799,36.161
34.44,36.199
35.155,36.221
35.934,36.228
36.765,36.219
37.632,36.197
38.515,36.161
39.396,36.115
40.255,36.059
41.073,35.994
41.835,35.923
42.526,35.845
43.134,35.762
43.653,35.674
44.077,35.58
44.404,35.483
44.638,35.381
44.78,35.276
44.839,35.17
44.822,35.063
44.74,34.958
44.602,34.855
44.417,34.754
44.195,34.655
43.944,34.559
43.67,34.464
43.38,34.371
43.078,34.279
42.769,34.189
42.454,34.102
42.137,34.017
41.817,33.936
41.496,33.858
41.173,33.784
40.85,33.714
40.527,33.646
40.204,33.58
39.882,33.517
39.563,33.456
39.255,33.397
38.964,33.34
38.692,33.286
38.435,33.235
38.189,33.187
37.947,33.141
37.706,33.097
37.46,33.054
37.208,33.012
36.95,32.971
36.685,32.932
36.416,32.894
36.144,32.858
35.871,32.823
35.601,32.789
35.335,32.759
35.078,32.731
34.83,32.708
34.594,32.688
34.374,32.674
34.171,32.664
33.987,32.658
33.823,32.656
33.681,32.657
33.56,32.661
33.462,32.667
33.388,32.674
33.336,32.68
33.309,32.684
33.305,32.686
33.324,32.685
33.366,32.681
33.431,32.673
33.518,32.661
33.624,32.646
33.749,32.626
33.891,32.603
34.046,32.578
34.214,32.551
34.392,32.522
34.578,32.493
34.769,32.464
34.964,32.434
35.159,32.405
35.353,32.377
35.543,32.352
35.726,32.329
35.9,32.307
36.062,32.288
36.21,32.272
36.341,32.261
36.453,32.257
36.543,32.263
36.611,32.285
36.655,32.329
36.677,32.404
36.677,32.519
36.658,32.684
36.619,32.907
36.565,33.196
36.495,33.556
36.413,33.99
36.32,34.496
36.218,35.073
36.107,35.712
35.99,36.403
35.868,37.135
35.742,37.894
35.613,38.662
35.482,39.425
35.351,40.165
35.22,40.867
35.088,41.52
34.956,42.114
34.824,42.639
34.691,43.09
34.559,43.466
34.426,43.765
34.293,43.989
34.158,44.142
34.023,44.228
33.886,44.255
33.746,44.228
33.604,44.155
33.461,44.042
33.316,43.896
33.173,43.722
33.031,43.526
32.892,43.314
32.758,43.09
32.631,42.858
32.512,42.62
32.4,42.38
32.294,42.138
32.194,41.896
32.098,41.655
32.007,41.414
31.921,41.173
31.84,40.933
31.767,40.692
31.7,40.453
31.641,40.214
31.59,39.977
31.546,39.742
31.51,39.508
31.481,39.275
31.458,39.043
31.442,38.813
31.431,38.584
31.422,38.357
31.416,38.133
31.41,37.911
31.404,37.692
31.397,37.476
31.389,37.263
31.38,37.053
31.37,36.848
31.361,36.649
31.352,36.456
31.342,36.268
31.333,36.085
31.324,35.907
31.313,35.736
31.303,35.574
31.291,35.422
31.28,35.284
31.269,35.16
31.259,35.053
31.25,34.964
31.244,34.893
31.242,34.84
31.243,34.805
31.25,34.786
31.261,34.784
31.277,34.797
31.3,34.825
31.333,34.867
31.379,34.922
31.44,34.99
31.522,35.07
31.629,35.161
31.769,35.263
31.949,35.373
32.178,35.489
32.463,35.61
32.814,35.734
33.236,35.858
33.732,35.985
34.304,36.117
34.946,36.25
35.652,36.384
36.411,36.516
37.208,36.643
38.029,36.761
38.854,36.868
39.668,36.96
40.454,37.037
41.197,37.096
41.884,37.136
42.503,37.157
43.045,37.159
43.504,37.141
43.876,37.106
44.16,37.055
44.357,36.991
44.471,36.915
44.508,36.832
44.475,36.743
44.379,36.651
44.229,36.556
44.032,36.46
43.797,36.363
43.53,36.265
43.239,36.166
42.93,36.067
42.611,35.967
42.286,35.865
41.959,35.763
41.632,35.659
41.307,35.555
40.984,35.45
40.666,35.346
40.35,35.243
40.038,35.141
39.729,35.041
39.422,34.942
39.118,34.846
38.816,34.752
38.518,34.659
38.223,34.568
37.933,34.478
37.647,34.388
37.365,34.298
37.089,34.209
36.818,34.121
36.551,34.034
36.29,33.951
36.033,33.871
35.78,33.795
35.531,33.724
35.286,33.659
35.045,33.599
34.807,33.546
34.575,33.499
34.35,33.459
34.134,33.424
33.93,33.395
33.742,33.372
33.571,33.353
33.42,33.338
33.29,33.327
33.184,33.318
33.103,33.31
33.047,33.302
33.017,33.294
33.012,33.285
33.032,33.275
33.076,33.264
33.144,33.252
33.234,33.237
33.344,33.221
33.474,33.203
33.622,33.184
33.786,33.164
33.965,33.144
34.155,33.125
34.355,33.107
34.561,33.091
34.77,33.076
34.978,33.062
35.182,33.049
35.378,33.037
35.563,33.024
35.737,33.013
35.903,33.001
36.061,32.99
36.207,32.979
36.338,32.968
36.451,32.954
36.543,32.937
36.612,32.917
36.656,32.893
36.675,32.866
36.667,32.841
36.636,32.817
36.581,32.799
36.506,32.79
36.413,32.793
36.304,32.814
36.183,32.86
36.053,32.937
35.915,33.055
35.772,33.219
35.625,33.438
35.476,33.718
35.327,34.066
35.178,34.482
35.031,34.968
34.886,35.518
34.745,36.125
34.605,36.779
34.468,37.467
34.332,38.176
34.196,38.89
34.062,39.592
33.929,40.269
33.796,40.908
33.664,41.495
33.531,42.023
33.398,42.483
33.266,42.871
33.136,43.185
33.008,43.426
32.883,43.595
32.763,43.697
32.647,43.738
32.536,43.723
32.431,43.658
32.332,43.55
32.239,43.406
32.151,43.233
32.071,43.039
32.003,42.83
31.949,42.613
31.909,42.392
31.88,42.171
31.858,41.952
31.839,41.738
31.82,41.529
31.799,41.324
31.772,41.122
31.74,40.921
31.7,40.72
31.655,40.518
31.605,40.314
31.551,40.106
31.494,39.896
31.437,39.682
31.38,39.464
31.326,39.244
31.275,39.023
31.229,38.801
31.189,38.581
31.155,38.365
31.127,38.153
31.107,37.947
31.094,37.748
31.088,37.555
31.088,37.37
31.094,37.191
31.104,37.02
31.117,36.856
31.131,36.698
31.147,36.544
31.162,36.393
31.178,36.244
31.193,36.097
31.208,35.951
31.223,35.806
31.237,35.663
31.25,35.523
31.261,35.388
31.273,35.258
31.285,35.135
31.301,35.02
31.324,34.914
31.357,34.82
31.407,34.74
31.48,34.674
31.586,34.625
31.734,34.593
31.934,34.578
32.198,34.582
32.534,34.603
32.949,34.642
33.449,34.697
34.031,34.768
34.694,34.854
35.428,34.954
36.222,35.065
37.06,35.185
37.927,35.31
38.803,35.44
39.668,35.57
40.505,35.699
41.296,35.824
42.025,35.942
42.68,36.053
43.251,36.154
43.732,36.246
44.119,36.326
44.411,36.397
44.612,36.458
44.726,36.509
44.76,36.549
44.722,36.579
44.622,36.596
44.469,36.602
44.272,36.595
44.041,36.577
43.784,36.547
43.508,36.505
43.218,36.453
42.92,36.39
42.616,36.321
42.31,36.244
42.005,36.163
41.701,36.077
41.4,35.988
41.103,35.897
40.81,35.802
40.521,35.705
40.237,35.605
39.959,35.503
39.686,35.401
39.42,35.297
39.161,35.194
38.907,35.092
38.657,34.989
38.409,34.888
38.161,34.788
37.911,34.69
37.657,34.593
37.399,34.498
37.137,34.403
36.872,34.31
36.606,34.217
36.34,34.125
36.077,34.034
35.819,33.946
35.568,33.861
35.328,33.779
35.1,33.701
34.886,33.628
34.688,33.558
34.508,33.491
34.347,33.426
34.205,33.364
34.082,33.304
33.978,33.246
33.894,33.191
33.829,33.138
33.781,33.089
33.751,33.042
33.74,32.999
33.748,32.958
33.774,32.919
33.819,32.881
33.883,32.844
33.965,32.807
34.066,32.772
34.184,32.74
34.317,32.712
34.465,32.687
34.624,32.665
34.792,32.646
34.967,32.628
35.146,32.611
35.327,32.595
35.506,32.579
35.68,32.564
35.844,32.549
35.996,32.534
36.134,32.518
36.254,32.502
36.356,32.485
36.437,32.468
36.497,32.451
36.539,32.435
36.561,32.417
36.566,32.399
36.554,32.379
36.526,32.358
36.484,32.337
36.428,32.315
36.361,32.293
36.283,32.271
36.194,32.249
36.097,32.23
35.991,32.214
35.878,32.204
35.759,32.205
35.635,32.222
35.507,32.26
35.375,32.328
35.239,32.432
35.102,32.581
34.961,32.783
34.82,33.042
34.678,33.365
34.537,33.751
34.398,34.202
34.262,34.714
34.127,35.283
33.996,35.9
33.867,36.552
33.741,37.228
33.616,37.913
33.492,38.593
33.368,39.254
33.244,39.882
33.122,40.466
33.001,40.995
32.883,41.464
32.769,41.867
32.658,42.199
32.551,42.459
32.449,42.648
32.352,42.768
32.262,42.822
32.178,42.815
32.1,42.753
32.027,42.644
31.958,42.495
31.893,42.314
31.83,42.108
31.77,41.884
31.711,41.646
31.655,41.399
31.601,41.148
31.55,40.893
31.504,40.637
31.461,40.381
31.423,40.127
31.389,39.874
31.359,39.623
31.332,39.373
31.309,39.124
31.289,38.876
31.272,38.628
31.258,38.382
31.249,38.138
31.242,37.897
31.238,37.659
31.236,37.425
31.236,37.196
31.237,36.973
31.237,36.756
31.236,36.545
31.234,36.341
31.231,36.143
31.226,35.951
31.221,35.765
31.214,35.584
31.207,35.409
31.199,35.238
31.19,35.071
31.181,34.909
31.171,34.751
31.161,34.597
31.15,34.449
31.141,34.306
31.132,34.17
31.125,34.045
31.12,33.93
31.12,33.828
31.125,33.741
31.14,33.67
31.169,33.618
31.218,33.584
31.292,33.569
31.399,33.572
31.547,33.592
31.742,33.629
31.995,33.683
32.312,33.755
32.702,33.845
33.168,33.951
33.713,34.074
34.335,34.211
35.028,34.363
35.782,34.527
36.585,34.7
37.422,34.879
38.278,35.06
39.133,35.241
39.97,35.419
40.771,35.591
41.52,35.755
42.204,35.908
42.812,36.049
43.335,36.176
43.77,36.289
44.113,36.386
44.366,36.468
44.532,36.533
44.615,36.582
44.623,36.612
44.564,36.625
44.446,36.618
44.281,36.591
44.076,36.546
43.841,36.483
43.584,36.406
43.312,36.316
43.029,36.216
42.739,36.11
42.446,35.998
42.151,35.883
41.856,35.765
41.562,35.646
41.269,35.526
40.977,35.404
40.686,35.282
40.394,35.159
40.103,35.036
39.813,34.913
39.523,34.79
39.234,34.668
38.947,34.547
38.661,34.427
38.377,34.309
38.096,34.191
37.818,34.075
37.544,33.96
37.274,33.846
37.008,33.734
36.748,33.624
36.494,33.518
36.247,33.416
36.006,33.317
35.771,33.224
35.542,33.136
35.321,33.054
35.107,32.977
34.903,32.905
34.707,32.837
34.523,32.774
34.35,32.714
34.19,32.658
34.046,32.604
33.918,32.555
33.806,32.509
33.713,32.468
33.639,32.43
33.586,32.396
33.554,32.365
33.546,32.336
33.561,32.31
33.6,32.287
33.662,32.266
33.746,32.249
33.85,32.234
33.972,32.222
34.11,32.214
34.26,32.209
34.42,32.207
34.587,32.209
34.758,32.214
34.932,32.221
35.106,32.23
35.278,32.24
35.447,32.252
35.612,32.265
35.77,32.278
35.919,32.291
36.057,32.303
36.181,32.313
36.29,32.322
36.38,32.331
36.45,32.339
36.5,32.347
36.527,32.355
36.533,32.362
36.518,32.368
36.482,32.373
36.428,32.376
36.357,32.379
36.272,32.382
36.176,32.385
36.071,32.39
35.961,32.398
35.849,32.412
35.735,32.436
35.621,32.475
35.506,32.535
35.389,32.624
35.271,32.749
35.15,32.917
35.022,33.135
34.888,33.409
34.748,33.742
34.601,34.133
34.45,34.582
34.296,35.083
34.141,35.63
33.987,36.213
33.836,36.82
33.69,37.438
33.549,38.053
33.415,38.654
33.287,39.227
33.164,39.763
33.044,40.252
32.927,40.689
32.814,41.067
32.71,41.385
32.616,41.64
32.531,41.835
32.454,41.972
32.383,42.055
32.317,42.087
32.254,42.075
32.192,42.024
32.13,41.937
32.065,41.821
31.998,41.681
31.927,41.519
31.852,41.341
31.775,41.15
31.697,40.948
31.619,40.738
31.544,40.521
31.474,40.298
31.408,40.069
31.349,39.835
31.298,39.599
31.253,39.362
31.216,39.124
31.185,38.889
31.159,38.657
31.138,38.43
31.12,38.207
31.103,37.99
31.087,37.779
31.074,37.573
31.063,37.372
31.056,37.177
31.053,36.984
31.052,36.795
31.056,36.608
31.062,36.423
31.071,36.241
31.081,36.061
31.092,35.883
31.102,35.707
31.113,35.534
31.123,35.364
31.134,35.198
31.145,35.036
31.158,34.879
31.171,34.727
31.186,34.582
31.203,34.445
31.23,34.315
31.271,34.196
31.323,34.088
31.384,33.993
31.448,33.913
31.51,33.849
31.565,33.803
31.61,33.774
31.642,33.76
31.66,33.762
31.664,33.777
31.655,33.806
31.638,33.848
31.616,33.902
31.595,33.967
31.581,34.044
31.583,34.132
31.607,34.229
31.664,34.334
31.764,34.447
31.918,34.567
32.135,34.691
32.425,34.819
32.794,34.949
33.247,35.078
33.786,35.206
34.406,35.33
35.102,35.451
35.864,35.567
36.68,35.677
37.533,35.779
38.405,35.874
39.278,35.96
40.132,36.035
40.95,36.098
41.715,36.149
42.413,36.187
43.034,36.213
43.57,36.227
44.016,36.23
44.371,36.223
44.635,36.205
44.813,36.178
44.909,36.14
44.93,36.093
44.884,36.036
44.778,35.97
44.622,35.897
44.424,35.816
44.192,35.729
43.933,35.635
43.654,35.536
43.36,35.43
43.055,35.318
42.743,35.199
42.427,35.071
42.11,34.934
41.792,34.787
41.474,34.632
41.157,34.468
40.84,34.297
40.525,34.119
40.211,33.935
39.897,33.746
39.583,33.552
39.27,33.355
38.956,33.156
38.643,32.955
38.332,32.755
38.022,32.557
37.717,32.362
37.416,32.171
37.121,31.984
36.833,31.801
36.554,31.622
36.285,31.446
36.026,31.274
35.779,31.105
35.541,30.938
35.313,30.772
35.094,30.607
34.884,30.443
34.682,30.282
34.488,30.125
34.305,29.972
34.132,29.825
33.973,29.684
33.828,29.551
33.702,29.424
33.594,29.305
33.505,29.194
33.439,29.09
33.394,28.994
33.371,28.906
33.37,28.825
33.39,28.75
33.431,28.682
33.492,28.619
33.572,28.561
33.67,28.51
33.786,28.464
33.918,28.424
34.066,28.39
34.227,28.36
34.401,28.333
34.583,28.31
34.773,28.29
34.966,28.273
35.158,28.26
35.346,28.251
35.526,28.245
35.694,28.241
35.848,28.239
35.985,28.238
36.104,28.239
36.202,28.241
36.28,28.244
36.338,28.25
36.376,28.26
36.397,28.273
36.4,28.292
36.388,28.319
36.36,28.357
36.319,28.408
36.264,28.477
36.196,28.571
36.116,28.697
36.026,28.863
35.927,29.079
35.82,29.354
35.707,29.696
35.588,30.114
35.464,30.611
35.336,31.188
35.205,31.846
35.072,32.578
34.939,33.375
34.805,34.228
34.672,35.122
34.54,36.041
34.411,36.966
34.284,37.881
34.159,38.766
34.036,39.607
33.915,40.388
33.795,41.098
33.676,41.728
33.559,42.272
33.445,42.727
33.335,43.092
33.231,43.367
33.134,43.558
33.043,43.67
32.959,43.709
32.881,43.683
32.808,43.602
32.738,43.476
32.671,43.313
32.604,43.123
32.535,42.915
32.463,42.695
32.389,42.468
32.311,42.239
32.23,42.011
32.147,41.785
32.063,41.561
31.979,41.34
31.896,41.122
31.816,40.906
31.739,40.691
31.667,40.475
31.601,40.257
31.541,40.037
31.487,39.815
31.441,39.589
31.403,39.359
31.374,39.126
31.352,38.888
31.339,38.647
31.331,38.403
31.328,38.158
31.33,37.913
31.335,37.667
31.342,37.421
31.352,37.176
31.365,36.932
31.381,36.69
31.4,36.447
31.423,36.206
31.448,35.964
31.476,35.725
31.505,35.488
31.534,35.255
31.562,35.028
31.589,34.808
31.615,34.597
31.638,34.396
31.659,34.206
31.679,34.03
31.697,33.87
31.712,33.728
31.726,33.605
31.739,33.502
31.75,33.421
31.759,33.362
31.768,33.326
31.775,33.313
31.78,33.324
31.783,33.358
31.785,33.414
31.788,33.491
31.792,33.589
31.798,33.706
31.809,33.841
31.826,33.992
31.848,34.157
31.879,34.333
31.918,34.519
31.968,34.712
32.033,34.91
32.116,35.11
32.224,35.308
32.365,35.503
32.548,35.691
32.783,35.87
33.08,36.041
33.447,36.201
33.891,36.348
34.415,36.481
35.018,36.599
35.696,36.7
36.441,36.785
37.241,36.853
38.081,36.904
38.943,36.938
39.809,36.957
40.661,36.961
41.48,36.952
42.25,36.93
42.955,36.899
43.585,36.857
44.131,36.807
44.586,36.75
44.95,36.688
45.221,36.621
45.402,36.55
45.499,36.477
45.518,36.4
45.466,36.32
45.353,36.237
45.187,36.152
44.976,36.064
44.729,35.974
44.456,35.883
44.164,35.791
43.858,35.7
43.543,35.61
43.223,35.521
42.898,35.435
42.572,35.35
42.244,35.267
41.916,35.184
41.588,35.099
41.261,35.013
40.934,34.924
40.607,34.833
40.281,34.742
39.956,34.649
39.634,34.556
39.315,34.465
39,34.375
38.689,34.288
38.382,34.205
38.082,34.124
37.788,34.046
37.502,33.971
37.225,33.897
36.956,33.825
36.696,33.755
36.444,33.687
36.2,33.621
35.966,33.557
35.741,33.493
35.527,33.43
35.324,33.365
35.135,33.3
34.962,33.232
34.808,33.162
34.675,33.092
34.563,33.024
34.474,32.961
34.408,32.907
34.365,32.867
34.344,32.846
34.347,32.848
34.371,32.877
34.417,32.94
34.484,33.041
34.571,33.187
34.677,33.381
34.8,33.627
34.939,33.928
35.091,34.284
35.253,34.695
35.424,35.158
35.6,35.669
35.779,36.218
35.959,36.797
36.136,37.392
36.309,37.992
36.474,38.584
36.631,39.153
36.778,39.689
36.914,40.18
37.037,40.619
37.148,40.999
37.244,41.316
37.325,41.569
37.39,41.76
37.439,41.89
37.471,41.965
37.486,41.989
37.482,41.968
37.46,41.908
37.421,41.815
37.366,41.694
37.296,41.551
37.212,41.391
37.115,41.221
37.008,41.044
36.892,40.862
36.768,40.677
36.635,40.492
36.495,40.306
36.349,40.12
36.198,39.933
36.045,39.747
35.891,39.559
35.738,39.37
35.588,39.177
35.441,38.982
35.298,38.783
35.159,38.581
35.022,38.377
34.886,38.171
34.75,37.966
34.613,37.761
34.475,37.559
34.338,37.361
34.203,37.165
34.07,36.974
33.943,36.786
33.821,36.603
33.708,36.422
33.604,36.245
33.508,36.069
33.421,35.895
33.341,35.721
33.269,35.547
33.202,35.373
33.137,35.199
33.075,35.027
33.012,34.859
32.948,34.697
32.882,34.541
32.815,34.393
32.748,34.253
32.681,34.125
32.614,34.007
32.549,33.903
32.486,33.812
32.423,33.736
32.361,33.675
32.3,33.629
32.24,33.597
32.18,33.58
32.117,33.577
32.048,33.589
31.976,33.614
31.904,33.652
31.836,33.701
31.774,33.761
31.719,33.83
31.674,33.905
31.64,33.986
31.616,34.069
31.603,34.154
31.6,34.241
31.606,34.328
31.618,34.415
31.636,34.501
31.658,34.586
31.682,34.668
31.708,34.746
31.734,34.819
31.76,34.885
31.785,34.943
31.806,34.994
31.823,35.037
31.834,35.072
31.84,35.101
31.84,35.122
31.836,35.135
31.828,35.14
31.817,35.137
31.805,35.124
31.796,35.104
31.791,35.076
31.795,35.042
31.81,35.001
31.842,34.955
31.894,34.904
31.973,34.85
32.088,34.791
32.244,34.73
32.451,34.667
32.715,34.602
33.042,34.536
33.434,34.469
33.893,34.402
34.417,34.334
35.002,34.266
35.641,34.197
36.323,34.129
37.038,34.064
37.771,34.003
38.507,33.946
39.231,33.893
39.928,33.845
40.584,33.8
41.185,33.756
41.724,33.714
42.194,33.672
42.589,33.631
42.908,33.589
43.15,33.548
43.318,33.507
43.416,33.466
43.448,33.425
43.42,33.385
43.34,33.344
43.215,33.303
43.053,33.259
42.859,33.214
42.641,33.167
42.404,33.12
42.153,33.073
41.894,33.027
41.63,32.981
41.363,32.937
41.097,32.894
40.831,32.853
40.568,32.813
40.308,32.776
40.051,32.74
39.799,32.707
39.55,32.675
39.304,32.645
39.06,32.617
38.817,32.59
38.576,32.565
38.336,32.542
38.099,32.521
37.862,32.503
37.628,32.492
37.395,32.491
37.164,32.507
36.936,32.544
36.71,32.61
36.489,32.711
36.271,32.855
36.058,33.046
35.85,33.29
35.648,33.591
35.452,33.951
35.264,34.368
35.084,34.837
34.914,35.353
34.756,35.904
34.608,36.479
34.474,37.066
34.355,37.652
34.251,38.225
34.165,38.772
34.097,39.285
34.048,39.756
34.018,40.177
34.006,40.545
34.011,40.858
34.033,41.113
34.069,41.312
34.118,41.457
34.18,41.549
34.252,41.594
34.336,41.596
34.431,41.561
34.537,41.493
34.653,41.397
34.779,41.28
34.912,41.144
35.052,40.994
35.195,40.835
35.34,40.668
35.484,40.494
35.623,40.317
35.754,40.137
35.875,39.955
35.984,39.773
36.078,39.59
36.158,39.409
36.221,39.228
36.268,39.048
36.298,38.869
36.312,38.692
36.31,38.516
36.295,38.342
36.267,38.17
36.228,38.003
36.179,37.839
36.124,37.677
36.067,37.516
36.008,37.355
35.946,37.194
35.882,37.033
35.812,36.874
35.735,36.717
35.649,36.564
35.553,36.414
35.448,36.267
35.334,36.125
35.211,35.989
35.081,35.857
34.946,35.729
34.808,35.603
34.668,35.48
34.528,35.357
34.39,35.235
34.253,35.114
34.119,34.995
33.989,34.879
33.864,34.768
33.743,34.664
33.627,34.569
33.516,34.486
33.409,34.417
33.306,34.365
33.207,34.329
33.112,34.308
33.021,34.303
32.933,34.312
32.848,34.334
32.766,34.368
32.687,34.413
32.612,34.469
32.541,34.535
32.475,34.611
32.413,34.695
32.355,34.786
32.3,34.884
32.248,34.987
32.197,35.094
32.15,35.203
32.104,35.312
32.062,35.419
32.023,35.522
31.987,35.619
31.954,35.709
31.924,35.789
31.898,35.859
31.874,35.918
31.855,35.967
31.841,36.007
31.831,36.037
31.825,36.06
31.822,36.074
31.822,36.08
31.824,36.077
31.826,36.066
31.827,36.047
31.828,36.02
31.827,35.987
31.825,35.945
31.82,35.896
31.813,35.839
31.805,35.777
31.795,35.709
31.784,35.637
31.772,35.561
31.76,35.482
31.748,35.4
31.735,35.316
31.723,35.232
31.712,35.146
31.704,35.06
31.7,34.974
31.701,34.887
31.709,34.799
31.725,34.711
31.754,34.624
31.798,34.537
31.862,34.451
31.949,34.366
32.067,34.284
32.221,34.203
32.419,34.125
32.668,34.049
32.974,33.976
33.345,33.905
33.784,33.837
34.294,33.771
34.872,33.708
35.515,33.648
36.215,33.589
36.961,33.532
37.738,33.475
38.533,33.418
39.328,33.361
40.107,33.304
40.854,33.248
41.553,33.191
42.193,33.135
42.764,33.079
43.258,33.025
43.67,32.972
43.999,32.921
44.244,32.873
44.409,32.828
44.498,32.787
44.519,32.752
44.478,32.722
44.383,32.701
44.242,32.69
44.063,32.693
43.852,32.714
43.616,32.758
43.36,32.832
43.09,32.94
42.807,33.088
42.517,33.283
42.221,33.527
41.921,33.823
41.62,34.169
41.319,34.563
41.019,35
40.72,35.471
40.422,35.968
40.128,36.482
39.837,37.001
39.55,37.514
39.266,38.011
38.986,38.483
38.71,38.92
38.437,39.316
38.168,39.665
37.904,39.965
37.645,40.214
37.393,40.412
37.148,40.561
36.91,40.664
36.679,40.723
36.455,40.742
36.238,40.726
36.027,40.678
35.822,40.6
35.621,40.496
35.425,40.37
35.234,40.226
35.05,40.067
34.876,39.897
34.715,39.719
34.568,39.535
34.44,39.348
34.331,39.16
34.245,38.973
34.182,38.787
34.141,38.604
34.123,38.425
34.128,38.248
34.154,38.075
34.201,37.905
34.267,37.736
34.353,37.568
34.455,37.4
34.573,37.234
34.705,37.069
34.848,36.907
35,36.748
35.16,36.593
35.326,36.444
35.495,36.299
35.666,36.16
35.836,36.026
36.002,35.897
36.163,35.771
36.316,35.648
36.458,35.527
36.587,35.406
36.699,35.287
36.795,35.168
36.873,35.05
36.932,34.933
36.973,34.819
36.996,34.707
37.004,34.6
36.996,34.497
36.974,34.4
36.939,34.31
36.892,34.228
36.834,34.155
36.765,34.093
36.686,34.044
36.598,34.007
36.5,33.984
36.391,33.974
36.27,33.978
36.139,33.994
36,34.023
35.855,34.063
35.706,34.112
35.556,34.168
35.406,34.23
35.258,34.297
35.113,34.367
34.972,34.44
34.836,34.515
34.706,34.591
34.582,34.667
34.464,34.742
34.35,34.815
34.24,34.886
34.134,34.952
34.031,35.013
33.93,35.068
33.832,35.117
33.735,35.16
33.64,35.197
33.546,35.23
33.453,35.257
33.36,35.279
33.268,35.296
33.177,35.307
33.086,35.312
32.996,35.311
32.906,35.303
32.819,35.288
32.735,35.267
32.654,35.239
32.579,35.205
32.509,35.166
32.446,35.121
32.389,35.072
32.338,35.019
32.295,34.963
32.259,34.902
32.23,34.838
32.209,34.772
32.194,34.703
32.185,34.631
32.177,34.557
32.165,34.481
32.147,34.402
32.124,34.321
32.1,34.238
32.076,34.154
32.057,34.07
32.045,33.985
32.041,33.901
32.046,33.818
32.059,33.736
32.078,33.655
32.103,33.575
32.132,33.497
32.165,33.42
32.202,33.344
32.239,33.269
32.278,33.195
32.317,33.122
32.354,33.053
32.388,32.986
32.42,32.922
32.447,32.859
32.471,32.798
32.492,32.738
32.513,32.68
32.537,32.625
32.569,32.572
32.615,32.521
32.682,32.473
32.776,32.426
32.906,32.381
33.08,32.337
33.306,32.294
33.591,32.252
33.941,32.211
34.358,32.172
34.842,32.133
35.39,32.094
35.996,32.056
36.651,32.018
37.342,31.981
38.055,31.945
38.776,31.912
39.488,31.884
40.177,31.863
40.829,31.852
41.431,31.853
41.974,31.87
42.45,31.907
42.856,31.969
43.188,32.06
43.449,32.189
43.639,32.361
43.763,32.582
43.824,32.857
43.83,33.187
43.785,33.572
43.696,34.008
43.568,34.489
43.408,35.006
43.222,35.548
43.014,36.104
42.79,36.661
42.553,37.207
42.307,37.732
42.054,38.225
41.795,38.678
41.531,39.084
41.264,39.437
40.994,39.735
40.723,39.977
40.452,40.164
40.179,40.298
39.905,40.382
39.631,40.421
39.355,40.418
39.079,40.379
38.803,40.308
38.526,40.21
38.25,40.091
37.974,39.954
37.7,39.803
37.429,39.64
37.162,39.47
36.9,39.294
36.643,39.113
36.392,38.929
36.15,38.744
35.916,38.557
35.692,38.37
35.479,38.185
35.278,38.002
35.089,37.82
34.915,37.639
34.756,37.458
34.614,37.278
34.49,37.098
34.383,36.919
34.294,36.743
34.222,36.57
34.168,36.402
34.134,36.24
34.12,36.086
34.127,35.938
34.159,35.799
34.214,35.666
34.293,35.54
34.396,35.419
34.52,35.302
34.662,35.188
34.82,35.076
34.991,34.963
35.173,34.85
35.361,34.734
35.552,34.617
35.743,34.499
35.929,34.379
36.107,34.259
36.274,34.14
36.428,34.023
36.567,33.911
36.689,33.806
36.793,33.71
36.879,33.625
36.947,33.553
36.998,33.495
37.032,33.453
37.05,33.428
37.055,33.42
37.046,33.43
37.025,33.457
36.993,33.501
36.951,33.559
36.898,33.631
36.835,33.714
36.762,33.808
36.677,33.911
36.582,34.021
36.477,34.138
36.362,34.26
36.239,34.384
36.107,34.508
35.97,34.631
35.827,34.75
35.679,34.862
35.523,34.967
35.359,35.062
35.188,35.146
35.014,35.22
34.843,35.282
34.678,35.334
34.521,35.375
34.375,35.405
34.242,35.426
34.121,35.438
34.012,35.44
33.913,35.432
33.822,35.416
33.736,35.391
33.655,35.359
33.577,35.321
33.5,35.279
33.426,35.233
33.353,35.185
33.282,35.134
33.214,35.082
33.148,35.029
33.086,34.976
33.027,34.921
32.972,34.866
32.919,34.809
32.869,34.75
32.819,34.691
32.77,34.63
32.722,34.568
32.675,34.505
32.629,34.441
32.585,34.376
32.543,34.309
32.504,34.239
32.469,34.168
32.438,34.094
32.411,34.019
32.388,33.943
32.368,33.867
32.35,33.791
32.333,33.714
32.316,33.638
32.299,33.561
32.283,33.485
32.268,33.409
32.254,33.335
32.241,33.263
32.23,33.193
32.223,33.127
32.22,33.063
32.221,33.003
32.225,32.945
32.235,32.89
32.253,32.84
32.282,32.793
32.327,32.75
32.394,32.711
32.489,32.674
32.622,32.641
32.801,32.609
33.031,32.579
33.32,32.551
33.671,32.523
34.086,32.497
34.566,32.473
35.106,32.45
35.699,32.43
36.338,32.413
37.009,32.4
37.699,32.392
38.394,32.391
39.079,32.4
39.741,32.423
40.368,32.464
40.949,32.531
41.474,32.627
41.936,32.76
42.33,32.935
42.651,33.157
42.9,33.429
43.078,33.75
43.189,34.12
43.238,34.534
43.229,34.987
43.171,35.472
43.069,35.978
42.932,36.497
42.767,37.022
42.578,37.542
42.374,38.046
42.157,38.523
41.932,38.964
41.702,39.359
41.468,39.704
41.232,39.992
40.994,40.223
40.754,40.395
40.512,40.511
40.266,40.573
40.015,40.586
39.759,40.554
39.5,40.482
39.239,40.378
38.979,40.247
38.721,40.095
38.467,39.929
38.216,39.752
37.972,39.568
37.732,39.381
37.499,39.191
37.271,39.001
37.048,38.811
36.829,38.621
36.615,38.433
36.406,38.246
36.202,38.062
36.004,37.879
35.811,37.699
35.624,37.52
35.444,37.344
35.27,37.171
35.105,37
34.95,36.833
34.805,36.669
34.674,36.507
34.557,36.348
34.455,36.19
34.37,36.034
34.303,35.879
34.255,35.725
34.225,35.574
34.213,35.425
34.221,35.278
34.246,35.134
34.29,34.991
34.352,34.851
34.431,34.713
34.526,34.578
34.637,34.446
34.761,34.316
34.896,34.189
35.041,34.066
35.192,33.948
35.348,33.838
35.505,33.736
35.663,33.645
35.818,33.568
35.97,33.503
36.115,33.454
36.25,33.421
36.373,33.404
36.481,33.405
36.572,33.423
36.644,33.457
36.695,33.507
36.727,33.572
36.738,33.65
36.731,33.739
36.706,33.839
36.665,33.947
36.61,34.062
36.542,34.181
36.464,34.304
36.378,34.427
36.285,34.55
36.186,34.67
36.082,34.786
35.972,34.896
35.858,34.999
35.739,35.094
35.617,35.178
35.493,35.252
35.367,35.314
35.241,35.365
35.115,35.404
34.992,35.433
34.872,35.452
34.756,35.463
34.646,35.466
34.54,35.462
34.44,35.45
34.345,35.432
34.253,35.409
34.163,35.38
34.073,35.346
33.981,35.308
33.887,35.264
33.791,35.216
33.692,35.164
33.591,35.109
33.489,35.052
33.386,34.995
33.284,34.937
33.186,34.879
33.091,34.822
33,34.765
32.912,34.708
32.825,34.651
32.738,34.593
32.651,34.534
32.563,34.472
32.474,34.409
32.385,34.345
32.298,34.28
32.214,34.216
32.136,34.151
32.065,34.089
32.003,34.028
31.95,33.969
31.907,33.912
31.875,33.856
31.853,33.801
31.842,33.747
31.839,33.694
31.844,33.643
31.854,33.596
31.871,33.553
31.892,33.515
31.918,33.482
31.948,33.454
31.98,33.431
32.014,33.411
32.049,33.395
32.085,33.382
32.12,33.372
32.154,33.364
32.187,33.358
32.219,33.355
32.248,33.355
32.277,33.359
32.303,33.367
32.328,33.378
32.352,33.393
32.375,33.411
32.398,33.432
32.421,33.459
32.445,33.495
32.47,33.545
32.497,33.614
32.529,33.707
32.569,33.831
32.621,33.991
32.69,34.192
32.783,34.435
32.905,34.721
33.064,35.048
33.267,35.414
33.52,35.813
33.828,36.237
34.196,36.679
34.624,37.128
35.114,37.576
35.663,38.013
36.266,38.431
36.915,38.823
37.599,39.181
38.307,39.5
39.024,39.775
39.736,40.004
40.43,40.185
41.091,40.32
41.707,40.41
42.269,40.457
42.767,40.465
43.198,40.438
43.556,40.379
43.841,40.293
44.052,40.183
44.194,40.054
44.269,39.908
44.285,39.75
44.249,39.582
44.167,39.408
44.048,39.23
43.898,39.05
43.724,38.871
43.534,38.696
43.332,38.527
43.125,38.365
42.917,38.208
42.71,38.055
42.507,37.906
42.309,37.759
42.118,37.614
41.932,37.472
41.752,37.33
41.575,37.19
41.399,37.051
41.223,36.914
41.045,36.78
40.863,36.649
40.677,36.522
40.485,36.399
40.288,36.28
40.086,36.163
39.881,36.05
39.673,35.938
39.464,35.828
39.254,35.719
39.047,35.609
38.841,35.498
38.639,35.386
38.44,35.272
38.245,35.155
38.054,35.036
37.867,34.913
37.685,34.79
37.508,34.669
37.337,34.552
37.171,34.443
37.01,34.345
36.855,34.26
36.707,34.19
36.568,34.137
36.44,34.101
36.324,34.082
36.223,34.08
36.139,34.093
36.075,34.119
36.033,34.158
36.014,34.207
36.021,34.265
36.051,34.33
36.106,34.398
36.181,34.469
36.275,34.538
36.382,34.605
36.499,34.666
36.622,34.723
36.746,34.775
36.869,34.822
36.988,34.865
37.1,34.904
37.201,34.939
37.292,34.971
37.369,35
37.434,35.026
37.484,35.051
37.521,35.074
37.545,35.092
37.559,35.106
37.566,35.115
37.566,35.118
37.558,35.116
37.542,35.107
37.519,35.094
37.485,35.076
37.441,35.053
37.386,35.026
37.318,34.993
37.238,34.955
37.147,34.912
37.047,34.863
36.939,34.809
36.825,34.749
36.706,34.685
36.585,34.617
36.463,34.546
36.341,34.471
36.222,34.396
36.106,34.32
35.993,34.245
35.884,34.171
35.779,34.099
35.677,34.028
35.577,33.959
35.479,33.892
35.381,33.826
35.282,33.762
35.181,33.7
35.078,33.64
34.973,33.58
34.865,33.521
34.754,33.46
34.641,33.398
34.527,33.335
34.413,33.272
34.302,33.209
34.193,33.15
34.089,33.094
33.99,33.042
33.897,32.997
33.812,32.959
33.733,32.928
33.661,32.906
33.595,32.89
33.535,32.882
33.481,32.88
33.43,32.882
33.384,32.889
33.341,32.899
33.301,32.909
33.265,32.92
33.233,32.929
33.204,32.933
33.178,32.933
33.156,32.927
33.137,32.915
33.122,32.897
33.11,32.875
33.103,32.849
33.1,32.819
33.1,32.787
33.103,32.754
33.11,32.722
33.119,32.693
33.131,32.669
33.144,32.651
33.159,32.643
33.174,32.647
33.191,32.667
33.209,32.707
33.227,32.773
33.244,32.869
33.259,33.001
33.27,33.174
33.277,33.393
33.281,33.663
33.282,33.983
33.28,34.355
33.279,34.774
33.278,35.234
33.28,35.729
33.289,36.247
33.307,36.777
33.339,37.308
33.39,37.828
33.468,38.327
33.578,38.795
33.727,39.224
33.92,39.606
34.162,39.938
34.455,40.216
34.798,40.44
35.187,40.612
35.612,40.734
36.07,40.809
36.555,40.84
37.061,40.83
37.579,40.783
38.101,40.703
38.619,40.594
39.121,40.46
39.6,40.305
40.047,40.132
40.454,39.946
40.816,39.749
41.127,39.544
41.385,39.334
41.588,39.12
41.737,38.906
41.831,38.694
41.874,38.485
41.869,38.281
41.822,38.083
41.739,37.892
41.625,37.709
41.486,37.533
41.329,37.365
41.157,37.205
40.976,37.053
40.789,36.91
40.598,36.775
40.407,36.646
40.216,36.523
40.025,36.403
39.834,36.284
39.643,36.166
39.45,36.049
39.256,35.93
39.059,35.811
38.861,35.692
38.662,35.571
38.463,35.452
38.266,35.334
38.073,35.221
37.885,35.112
37.704,35.008
37.533,34.91
37.372,34.817
37.222,34.729
37.083,34.646
36.955,34.57
36.837,34.503
36.727,34.445
36.624,34.399
36.526,34.365
36.43,34.343
36.334,34.334
36.239,34.335
36.142,34.346
36.045,34.365
35.946,34.389
35.847,34.418
35.749,34.45
35.653,34.485
35.562,34.521
35.478,34.558
35.404,34.596
35.341,34.635
35.292,34.676
35.258,34.721
35.239,34.769
35.237,34.821
35.249,34.875
35.275,34.93
35.314,34.985
35.363,35.039
35.423,35.091
35.49,35.141
35.565,35.189
35.646,35.233
35.732,35.273
35.821,35.31
35.911,35.342
35.999,35.369
36.085,35.39
36.166,35.405
36.242,35.414
36.31,35.418
36.372,35.417
36.424,35.41
36.468,35.399
36.504,35.381
36.53,35.358
36.546,35.331
36.553,35.299
36.55,35.262
36.537,35.22
36.513,35.173
36.481,35.119
36.44,35.058
36.393,34.99
36.347,34.915
36.308,34.835
36.275,34.749
36.244,34.659
36.21,34.567
36.17,34.474
36.117,34.381
36.05,34.288
35.966,34.197
35.865,34.106
35.748,34.015
35.615,33.923
35.469,33.828
35.312,33.731
35.149,33.632
34.983,33.531
34.815,33.428
34.65,33.323
34.487,33.216
34.329,33.108
34.176,32.999
34.03,32.891
33.892,32.784
33.761,32.68
33.637,32.58
33.521,32.484
33.413,32.395
33.312,32.314
33.218,32.24
33.132,32.175
33.052,32.118
32.979,32.068
32.911,32.026
32.849,31.993
32.791,31.967
32.735,31.949
32.682,31.937
32.631,31.932
32.581,31.931
32.532,31.935
32.485,31.942
32.441,31.952
32.401,31.964
32.367,31.979
32.338,31.995
32.315,32.011
32.299,32.026
32.288,32.039
32.282,32.05
32.279,32.06
32.277,32.069
32.275,32.079
32.271,32.09
32.267,32.103
32.263,32.117
32.259,32.133
32.258,32.151
32.258,32.172
32.263,32.195
32.27,32.222
32.282,32.256
32.297,32.298
32.315,32.355
32.337,32.431
32.362,32.535
32.391,32.671
32.421,32.845
32.454,33.062
32.489,33.323
32.527,33.63
32.567,33.98
32.609,34.37
32.652,34.794
32.695,35.244
32.736,35.712
32.775,36.188
32.809,36.662
32.836,37.125
32.856,37.568
32.867,37.985
32.871,38.369
32.868,38.715
32.858,39.021
32.843,39.284
32.825,39.504
32.806,39.682
32.786,39.818
32.766,39.914
32.745,39.973
32.724,39.996
32.702,39.989
32.68,39.954
32.657,39.894
32.633,39.813
32.611,39.714
32.59,39.602
32.575,39.477
32.568,39.343
32.572,39.203
32.593,39.057
32.635,38.91
32.704,38.763
32.807,38.619
32.949,38.477
33.134,38.338
33.367,38.202
33.651,38.067
33.988,37.934
34.38,37.801
34.822,37.668
35.311,37.536
35.839,37.403
36.398,37.271
36.976,37.14
37.564,37.01
38.15,36.884
38.722,36.76
39.269,36.641
39.781,36.527
40.249,36.419
40.666,36.315
41.024,36.215
41.322,36.119
41.555,36.023
41.726,35.928
41.835,35.833
41.885,35.735
41.88,35.637
41.826,35.538
41.728,35.44
41.59,35.341
41.42,35.245
41.222,35.149
41.003,35.057
40.767,34.969
40.521,34.886
40.267,34.809
40.01,34.741
39.751,34.682
39.492,34.633
39.235,34.596
38.982,34.571
38.735,34.559
38.494,34.561
38.259,34.575
38.03,34.602
37.806,34.639
37.588,34.686
37.377,34.742
37.175,34.805
36.983,34.874
36.801,34.946
36.63,35.022
36.468,35.098
36.315,35.175
36.17,35.252
36.03,35.325
35.895,35.394
35.764,35.458
35.636,35.516
35.509,35.568
35.384,35.615
35.259,35.655
35.134,35.689
35.008,35.716
34.884,35.737
34.762,35.751
34.644,35.757
34.532,35.757
34.427,35.751
34.332,35.739
34.246,35.721
34.172,35.699
34.111,35.671
34.065,35.639
34.034,35.601
34.018,35.557
34.016,35.509
34.029,35.456
34.057,35.399
34.099,35.339
34.153,35.275
34.218,35.207
34.294,35.135
34.378,35.061
34.47,34.983
34.569,34.904
34.672,34.823
34.778,34.741
34.886,34.659
34.993,34.576
35.099,34.495
35.201,34.416
35.298,34.338
35.389,34.261
35.47,34.185
35.54,34.108
35.597,34.03
35.64,33.952
35.668,33.873
35.682,33.793
35.683,33.711
35.671,33.629
35.647,33.545
35.612,33.46
35.567,33.374
35.512,33.288
35.45,33.201
35.381,33.114
35.307,33.026
35.229,32.94
35.146,32.855
35.059,32.771
34.968,32.689
34.873,32.61
34.775,32.533
34.672,32.459
34.566,32.389
34.456,32.324
34.343,32.265
34.229,32.214
34.114,32.171
34,32.137
33.887,32.11
33.776,32.09
33.666,32.077
33.559,32.069
33.454,32.067
33.348,32.07
33.242,32.075
33.132,32.083
33.02,32.092
32.906,32.103
32.791,32.114
32.676,32.125
32.564,32.136
32.456,32.146
32.353,32.155
32.256,32.162
32.166,32.169
32.085,32.175
32.013,32.178
31.952,32.181
31.899,32.182
31.853,32.183
31.811,32.184
31.771,32.185
31.731,32.185
31.692,32.186
31.653,32.187
31.614,32.189
31.577,32.192
31.543,32.198
31.513,32.207
31.488,32.221
31.468,32.241
31.454,32.271
31.444,32.314
31.438,32.376
31.436,32.462
31.438,32.577
31.445,32.728
31.457,32.919
31.474,33.155
31.497,33.438
31.525,33.769
31.559,34.146
31.596,34.565
31.636,35.02
31.678,35.502
31.722,36.002
31.766,36.507
31.809,37.005
31.853,37.485
31.894,37.939
31.934,38.358
31.971,38.736
32.007,39.069
32.041,39.354
32.074,39.589
32.105,39.775
32.137,39.913
32.169,40.006
32.201,40.056
32.233,40.067
32.266,40.044
32.297,39.988
32.326,39.905
32.354,39.797
32.378,39.668
32.399,39.52
32.415,39.357
32.426,39.183
32.433,38.999
32.437,38.808
32.438,38.615
32.437,38.42
32.432,38.225
32.426,38.033
32.417,37.842
32.406,37.654
32.394,37.47
32.379,37.289
32.363,37.112
32.343,36.94
32.322,36.772
32.299,36.609
32.276,36.45
32.256,36.296
32.244,36.146
32.244,36.001
32.264,35.861
32.312,35.726
32.395,35.596
32.521,35.472
32.695,35.354
32.924,35.241
33.211,35.133
33.557,35.03
33.962,34.929
34.423,34.83
34.935,34.733
35.488,34.638
36.075,34.543
36.685,34.448
37.304,34.355
37.922,34.265
38.526,34.179
39.105,34.101
39.648,34.031
40.147,33.973
40.595,33.928
40.987,33.897
41.317,33.882
41.586,33.885
41.792,33.905
41.933,33.943
42.006,33.998
42.013,34.072
41.961,34.162
41.857,34.268
41.711,34.387
41.533,34.518
41.331,34.658
41.116,34.805
40.893,34.957
40.668,35.11
40.444,35.263
40.223,35.415
40.006,35.562
39.794,35.705
39.584,35.84
39.378,35.967
39.172,36.085
38.968,36.192
38.764,36.289
38.56,36.373
38.355,36.446
38.15,36.506
37.945,36.554
37.741,36.591
37.539,36.617
37.34,36.634
37.146,36.64
36.957,36.635
36.774,36.619
36.596,36.592
36.424,36.553
36.256,36.503
36.093,36.441
35.934,36.369
35.776,36.288
35.621,36.197
35.466,36.099
35.313,35.995
35.162,35.886
35.016,35.774
34.876,35.66
34.746,35.544
34.628,35.426
34.524,35.307
34.436,35.186
34.364,35.064
34.309,34.942
34.271,34.82
34.25,34.699
34.248,34.58
34.261,34.465
34.29,34.354
34.333,34.248
34.389,34.147
34.458,34.051
34.539,33.961
34.633,33.875
34.739,33.793
34.855,33.713
34.98,33.636
35.112,33.561
35.249,33.488
35.388,33.418
35.525,33.353
35.66,33.293
35.789,33.237
35.91,33.186
36.022,33.138
36.122,33.094
36.21,33.052
36.284,33.012
36.343,32.973
36.388,32.936
36.417,32.901
36.433,32.868
36.435,32.837
36.425,32.808
36.405,32.781
36.375,32.755
36.338,32.73
36.293,32.706
36.24,32.68
36.18,32.653
36.112,32.625
36.036,32.596
35.951,32.568
35.857,32.54
35.755,32.514
35.644,32.488
35.526,32.463
35.402,32.44
35.274,32.42
35.143,32.405
35.013,32.396
34.884,32.394
34.759,32.402
34.638,32.423
34.523,32.461
34.412,32.519
34.305,32.603
34.201,32.719
34.1,32.87
34.003,33.06
33.908,33.293
33.816,33.57
33.724,33.89
33.634,34.25
33.546,34.644
33.461,35.066
33.378,35.509
33.299,35.962
33.224,36.417
33.153,36.864
33.087,37.294
33.026,37.699
32.969,38.072
32.917,38.408
32.869,38.704
32.825,38.956
32.786,39.164
32.752,39.327
32.723,39.446
32.699,39.523
32.68,39.561
32.667,39.563
32.657,39.533
32.65,39.477
32.646,39.399
32.644,39.302
32.644,39.19
32.647,39.068
32.652,38.936
32.661,38.798
32.671,38.655
32.682,38.51
32.693,38.363
32.703,38.216
32.71,38.068
32.714,37.92
32.713,37.772
32.707,37.623
32.697,37.474
32.685,37.326
32.671,37.177
32.658,37.027
32.646,36.878
32.638,36.727
32.635,36.575
32.636,36.42
32.644,36.263
32.658,36.104
32.679,35.943
32.708,35.782
32.745,35.622
32.792,35.461
32.851,35.3
32.927,35.138
33.023,34.975
33.145,34.812
33.3,34.65
33.492,34.489
33.726,34.33
34.007,34.175
34.336,34.025
34.716,33.882
35.145,33.745
35.619,33.616
36.131,33.496
36.674,33.386
37.237,33.29
37.809,33.209
38.379,33.145
38.937,33.098
39.471,33.07
39.971,33.061
40.429,33.072
40.84,33.103
41.197,33.152
41.498,33.219
41.742,33.301
41.928,33.396
42.058,33.503
42.135,33.62
42.164,33.745
42.149,33.877
42.096,34.014
42.011,34.153
41.898,34.291
41.765,34.427
41.615,34.558
41.453,34.682
41.284,34.797
41.111,34.903
40.937,34.999
40.763,35.084
40.591,35.158
40.421,35.221
40.253,35.272
40.086,35.314
39.919,35.347
39.751,35.37
39.579,35.383
39.403,35.386
39.223,35.378
39.037,35.36
38.846,35.331
38.649,35.293
38.448,35.247
38.241,35.193
38.029,35.133
37.813,35.068
37.596,34.999
37.377,34.928
37.158,34.856
36.939,34.784
36.723,34.712
36.51,34.641
36.301,34.57
36.098,34.497
35.901,34.423
35.714,34.346
35.539,34.266
35.379,34.183
35.236,34.098
35.114,34.011
35.013,33.925
34.933,33.838
34.875,33.751
34.839,33.664
34.824,33.578
34.829,33.492
34.851,33.408
34.889,33.326
34.942,33.246
35.009,33.168
35.088,33.093
35.177,33.021
35.275,32.953
35.38,32.889
35.491,32.829
35.604,32.773
35.72,32.721
35.836,32.673
35.95,32.63
36.063,32.59
36.172,32.556
36.275,32.526
36.371,32.502
36.46,32.482
36.538,32.466
36.604,32.453
36.656,32.444
36.694,32.438
36.715,32.435
36.721,32.434
36.709,32.433
36.681,32.433
36.635,32.431
36.575,32.428
36.501,32.423
36.416,32.416
36.323,32.408
36.222,32.397
36.115,32.384
36.004,32.37
35.891,32.355
35.778,32.338
35.665,32.321
35.553,32.305
35.442,32.289
35.332,32.273
35.223,32.259
35.113,32.245
35.003,32.235
34.893,32.228
34.782,32.228
34.672,32.236
34.562,32.255
34.452,32.289
34.343,32.342
34.237,32.422
34.132,32.534
34.031,32.684
33.931,32.879
33.833,33.12
33.736,33.412
33.641,33.752
33.547,34.139
33.455,34.567
33.366,35.029
33.28,35.516
33.197,36.018
33.117,36.525
33.043,37.025
32.977,37.507
32.918,37.963
32.866,38.383
32.821,38.762
32.781,39.093
32.746,39.375
32.715,39.604
32.686,39.782
32.66,39.91
32.636,39.99
32.615,40.026
32.596,40.022
32.58,39.982
32.566,39.913
32.556,39.82
32.549,39.706
32.545,39.576
32.546,39.433
32.55,39.279
32.556,39.116
32.566,38.944
32.577,38.764
32.59,38.579
32.603,38.391
32.618,38.203
32.634,38.018
32.652,37.836
32.671,37.661
32.692,37.492
32.712,37.329
32.733,37.174
32.751,37.024
32.766,36.879
32.777,36.739
32.784,36.602
32.786,36.467
32.783,36.335
32.775,36.204
32.764,36.076
32.749,35.949
32.734,35.824
32.717,35.701
32.701,35.58
32.684,35.46
32.669,35.342
32.655,35.224
32.645,35.107
32.64,34.989
32.643,34.871
32.658,34.753
32.689,34.634
32.743,34.516
32.824,34.398
32.941,34.281
33.099,34.168
33.306,34.06
33.564,33.959
33.876,33.866
34.243,33.782
34.662,33.708
35.127,33.645
35.634,33.595
36.171,33.559
36.731,33.537
37.301,33.53
37.869,33.538
38.423,33.561
38.951,33.597
39.443,33.646
39.888,33.706
40.279,33.776
40.612,33.854
40.883,33.939
41.089,34.03
41.232,34.126
41.314,34.227
41.341,34.329
41.317,34.434
41.247,34.539
41.138,34.644
40.996,34.746
40.828,34.846
40.64,34.941
40.437,35.029
40.223,35.11
40.004,35.182
39.781,35.245
39.557,35.299
39.335,35.343
39.115,35.377
38.898,35.4
38.687,35.412
38.48,35.412
38.279,35.401
38.082,35.38
37.889,35.348
37.698,35.307
37.508,35.256
37.319,35.198
37.129,35.134
36.94,35.064
36.751,34.99
36.566,34.913
36.382,34.835
36.202,34.755
36.025,34.673
35.853,34.591
35.686,34.508
35.524,34.426
35.369,34.344
35.221,34.263
35.078,34.184
34.941,34.105
34.81,34.028
34.685,33.952
34.566,33.877
34.452,33.802
34.343,33.729
34.239,33.658
34.142,33.586
34.053,33.515
33.971,33.442
33.9,33.369
33.84,33.295
33.795,33.22
33.764,33.145
33.749,33.071
33.751,32.999
33.769,32.929
33.805,32.863
33.857,32.801
33.923,32.744
34.002,32.691
34.093,32.642
34.193,32.598
34.302,32.559
34.416,32.524
34.534,32.493
34.654,32.466
34.775,32.442
34.893,32.423
35.008,32.409
35.118,32.398
35.223,32.39
35.321,32.385
35.412,32.38
35.495,32.374
35.572,32.367
35.641,32.359
35.701,32.348
35.75,32.334
35.787,32.319
35.81,32.302
35.819,32.285
35.813,32.267
35.794,32.25
35.762,32.234
35.718,32.219
35.663,32.204
35.599,32.191
35.526,32.18
35.446,32.173
35.36,32.172
35.269,32.182
35.174,32.204
35.077,32.245
34.979,32.308
34.879,32.398
34.779,32.521
34.676,32.679
34.572,32.875
34.465,33.113
34.357,33.393
34.247,33.715
34.137,34.076
34.025,34.473
33.913,34.9
33.801,35.35
33.69,35.815
33.581,36.286
33.474,36.754
33.369,37.209
33.269,37.642
33.171,38.044
33.075,38.409
32.98,38.732
32.886,39.009
32.793,39.238
32.701,39.417
32.611,39.549
32.523,39.635
32.439,39.679
32.361,39.685
32.289,39.658
32.224,39.602
32.165,39.522
32.112,39.424
32.065,39.31
32.022,39.185
31.983,39.05
31.948,38.909
31.917,38.763
31.89,38.612
31.868,38.457
31.852,38.299
31.841,38.14
31.836,37.98
31.838,37.819
31.848,37.659
31.864,37.5
31.886,37.343
31.914,37.188
31.946,37.037
31.981,36.889
32.017,36.743
32.053,36.601
32.089,36.464
32.123,36.331
32.156,36.201
32.186,36.076
32.215,35.953
32.241,35.833
32.265,35.715
32.286,35.599
32.303,35.485
32.316,35.371
32.324,35.258
32.328,35.144
32.329,35.031
32.326,34.919
32.321,34.808
32.315,34.698
32.309,34.589
32.304,34.484
32.301,34.381
32.3,34.283
32.304,34.192
32.314,34.109
32.335,34.037
32.368,33.975
32.419,33.926
32.491,33.889
32.591,33.866
32.725,33.856
32.9,33.86
33.12,33.878
33.391,33.911
33.718,33.957
34.1,34.017
34.537,34.089
35.025,34.173
35.557,34.265
36.124,34.364
36.715,34.468
37.318,34.575
37.919,34.685
38.506,34.795
39.067,34.905
39.589,35.014
40.062,35.119
40.48,35.22
40.836,35.315
41.128,35.403
41.354,35.482
41.515,35.553
41.614,35.613
41.653,35.663
41.639,35.702
41.577,35.732
41.474,35.752
41.337,35.762
41.173,35.763
40.987,35.755
40.784,35.738
40.568,35.714
40.343,35.681
40.109,35.641
39.871,35.593
39.628,35.539
39.385,35.48
39.141,35.416
38.899,35.349
38.658,35.279
38.419,35.206
38.183,35.131
37.95,35.054
37.719,34.975
37.49,34.897
37.266,34.817
37.046,34.739
36.831,34.661
36.621,34.585
36.417,34.511
36.22,34.438
36.03,34.367
35.847,34.297
35.671,34.229
35.501,34.164
35.336,34.1
35.175,34.038
35.017,33.977
34.86,33.919
34.706,33.864
34.554,33.812
34.406,33.762
34.263,33.716
34.128,33.672
34.002,33.631
33.888,33.593
33.788,33.559
33.702,33.528
33.633,33.501
33.581,33.477
33.545,33.454
33.525,33.433
33.521,33.413
33.532,33.394
33.558,33.375
33.597,33.357
33.648,33.338
33.711,33.318
33.786,33.297
33.871,33.274
33.966,33.249
34.072,33.221
34.187,33.191
34.312,33.16
34.444,33.129
34.581,33.1
34.72,33.073
34.859,33.05
34.995,33.032
35.125,33.021
35.246,33.017
35.355,33.022
35.45,33.038
35.53,33.068
35.594,33.117
35.644,33.191
35.679,33.293
35.702,33.431
35.714,33.609
35.716,33.831
35.71,34.099
35.695,34.413
35.672,34.772
35.641,35.171
35.603,35.604
35.556,36.064
35.502,36.543
35.439,37.03
35.366,37.515
35.283,37.987
35.19,38.439
35.089,38.863
34.979,39.251
34.862,39.599
34.741,39.903
34.618,40.161
34.495,40.37
34.373,40.531
34.253,40.646
34.135,40.717
34.02,40.748
33.908,40.741
33.798,40.702
33.692,40.633
33.587,40.539
33.483,40.425
33.38,40.293
33.275,40.149
33.169,39.994
33.064,39.832
32.96,39.665
32.858,39.495
32.759,39.323
32.662,39.15
32.57,38.978
32.482,38.807
32.4,38.639
32.322,38.474
32.25,38.312
32.183,38.152
32.121,37.994
32.065,37.839
32.013,37.685
31.967,37.534
31.926,37.384
31.889,37.235
31.857,37.089
31.829,36.946
31.805,36.806
31.785,36.67
31.767,36.538
31.751,36.411
31.737,36.289
31.725,36.171
31.717,36.058
31.714,35.948
31.714,35.839
31.72,35.734
31.731,35.629
31.747,35.526
31.768,35.425
31.794,35.326
31.824,35.23
31.858,35.137
31.897,35.049
31.938,34.969
31.984,34.897
32.034,34.836
32.087,34.786
32.142,34.748
32.196,34.724
32.249,34.713
32.299,34.715
32.344,34.728
32.385,34.753
32.421,34.788
32.451,34.831
32.477,34.881
32.497,34.937
32.511,34.998
32.521,35.064
32.526,35.133
32.526,35.203
32.524,35.273
32.518,35.343
32.509,35.411
32.5,35.476
32.491,35.538
32.485,35.595
32.485,35.647
32.497,35.692
32.524,35.731
32.574,35.763
32.652,35.788
32.767,35.805
32.925,35.815
33.127,35.819
33.374,35.816
33.668,35.808
34.012,35.793
34.407,35.772
34.852,35.743
35.343,35.709
35.872,35.667
36.431,35.621
37.009,35.569
37.594,35.514
38.174,35.454
38.736,35.391
39.27,35.326
39.766,35.258
40.215,35.187
40.611,35.115
40.949,35.04
41.227,34.963
41.442,34.883
41.595,34.801
41.689,34.717
41.727,34.63
41.712,34.544
41.649,34.457
41.543,34.37
41.4,34.285
41.226,34.2
41.026,34.117
40.806,34.034
40.569,33.952
40.319,33.871
40.061,33.792
39.798,33.717
39.533,33.644
39.268,33.577
39.003,33.514
38.739,33.456
38.477,33.404
38.218,33.357
37.963,33.315
37.714,33.276
37.472,33.241
37.237,33.208
37.011,33.178
36.794,33.15
36.587,33.125
36.389,33.102
36.199,33.081
36.016,33.06
35.838,33.041
35.662,33.022
35.488,33.004
35.313,32.986
35.136,32.968
34.96,32.949
34.783,32.93
34.608,32.91
34.437,32.89
34.272,32.872
34.115,32.854
33.969,32.84
33.836,32.828
33.717,32.82
33.615,32.813
33.53,32.804
33.463,32.79
33.416,32.772
33.388,32.752
33.38,32.731
33.393,32.71
33.425,32.692
33.476,32.675
33.546,32.66
33.633,32.648
33.738,32.637
33.858,32.629
33.993,32.623
34.141,32.618
34.3,32.615
34.469,32.614
34.645,32.617
34.825,32.627
35.006,32.648
35.183,32.685
35.354,32.744
35.516,32.832
35.665,32.955
35.801,33.12
35.922,33.333
36.026,33.598
36.113,33.918
36.183,34.289
36.236,34.709
36.273,35.171
36.295,35.667
36.301,36.187
36.293,36.719
36.27,37.254
36.232,37.779
36.183,38.285
36.125,38.762
36.061,39.202
35.993,39.599
35.921,39.947
35.844,40.244
35.763,40.487
35.675,40.676
35.581,40.812
35.479,40.9
35.369,40.941
35.252,40.942
35.127,40.905
34.996,40.836
34.859,40.739
34.718,40.62
34.575,40.481
34.43,40.327
34.287,40.162
34.146,39.989
34.008,39.811
33.873,39.632
33.744,39.454
33.618,39.278
33.498,39.105
33.382,38.936
33.27,38.77
33.162,38.61
33.057,38.454
32.955,38.303
32.856,38.157
32.761,38.016
32.669,37.878
32.581,37.744
32.498,37.613
32.422,37.484
32.351,37.357
32.287,37.233
32.23,37.112
32.177,36.996
32.13,36.883
32.087,36.775
32.048,36.672
32.012,36.571
31.979,36.474
31.951,36.379
31.928,36.287
31.909,36.197
31.896,36.109
31.889,36.022
31.889,35.935
31.897,35.848
31.91,35.763
31.93,35.678
31.953,35.595
31.98,35.513
32.007,35.434
32.034,35.357
32.058,35.284
32.08,35.214
32.099,35.15
32.116,35.094
32.13,35.046
32.143,35.01
32.156,34.985
32.169,34.972
32.183,34.971
32.197,34.983
32.21,35.006
32.223,35.04
32.234,35.083
32.244,35.134
32.253,35.193
32.262,35.259
32.272,35.331
32.286,35.408
32.304,35.488
32.33,35.57
32.365,35.654
32.412,35.739
32.475,35.823
32.559,35.905
32.669,35.982
32.809,36.052
32.987,36.114
33.206,36.165
33.474,36.204
33.794,36.231
34.168,36.246
34.597,36.25
35.078,36.244
35.605,36.23
36.169,36.21
36.762,36.183
37.37,36.15
37.984,36.113
38.589,36.072
39.175,36.026
39.724,35.975
40.223,35.92
40.666,35.858
41.048,35.791
41.367,35.718
41.624,35.64
41.822,35.557
41.961,35.473
42.045,35.387
42.078,35.301
42.066,35.215
42.011,35.13
41.92,35.044
41.796,34.958
41.644,34.87
41.468,34.782
41.274,34.693
41.065,34.604
40.846,34.515
40.62,34.426
40.391,34.338
40.162,34.253
39.933,34.171
39.708,34.093
39.486,34.018
39.267,33.946
39.051,33.877
38.838,33.81
38.627,33.745
38.419,33.681
38.214,33.62
38.01,33.561
37.809,33.503
37.612,33.446
37.418,33.389
37.229,33.331
37.044,33.273
36.863,33.215
36.687,33.159
36.517,33.104
36.352,33.051
36.193,33
36.04,32.953
35.892,32.909
35.751,32.869
35.616,32.835
35.491,32.807
35.374,32.784
35.268,32.767
35.172,32.756
35.088,32.75
35.017,32.749
34.96,32.753
34.921,32.76
34.901,32.769
34.9,32.779
34.918,32.789
34.956,32.8
35.012,32.811
35.085,32.822
35.173,32.833
35.273,32.846
35.383,32.858
35.501,32.871
35.625,32.884
35.752,32.896
35.881,32.905
36.009,32.913
36.136,32.917
36.257,32.918
36.373,32.916
36.481,32.911
36.581,32.903
36.671,32.891
36.751,32.877
36.821,32.861
36.879,32.843
36.926,32.823
36.961,32.801
36.985,32.778
36.999,32.754
37.003,32.728
36.997,32.704
36.98,32.682
36.954,32.667
36.918,32.66
36.871,32.666
36.815,32.688
36.75,32.731
36.675,32.802
36.592,32.906
36.499,33.05
36.399,33.239
36.292,33.48
36.18,33.773
36.062,34.121
35.941,34.522
35.818,34.972
35.694,35.465
35.568,35.992
35.441,36.542
35.312,37.104
35.182,37.666
35.051,38.215
34.921,38.739
34.792,39.229
34.666,39.676
34.542,40.071
34.421,40.413
34.306,40.698
34.195,40.928
34.09,41.1
33.993,41.218
33.902,41.284
33.817,41.303
33.739,41.28
33.667,41.22
33.6,41.128
33.535,41.011
33.472,40.874
33.41,40.722
33.35,40.559
33.293,40.388
33.238,40.212
33.186,40.032
33.139,39.85
33.097,39.668
33.061,39.486
33.03,39.305
33.003,39.126
32.98,38.95
32.96,38.777
32.941,38.607
32.922,38.44
32.903,38.276
32.883,38.115
32.863,37.957
32.843,37.805
32.823,37.657
32.806,37.515
32.792,37.378
32.781,37.246
32.774,37.12
32.77,36.998
32.769,36.882
32.771,36.77
32.774,36.66
32.779,36.554
32.783,36.451
32.786,36.35
32.784,36.252
32.779,36.154
32.773,36.056
32.766,35.96
32.76,35.864
32.756,35.769
32.756,35.675
32.761,35.582
32.769,35.49
32.782,35.401
32.798,35.316
32.815,35.239
32.833,35.17
32.852,35.112
32.868,35.066
32.883,35.035
32.896,35.018
32.906,35.015
32.915,35.024
32.921,35.045
32.925,35.075
32.926,35.116
32.923,35.166
32.918,35.224
32.91,35.289
32.898,35.36
32.883,35.437
32.864,35.517
32.843,35.6
32.818,35.684
32.791,35.769
32.762,35.853
32.732,35.933
32.702,36.008
32.675,36.077
32.655,36.139
32.646,36.194
32.652,36.24
32.68,36.279
32.735,36.309
32.827,36.331
32.962,36.346
33.148,36.353
33.391,36.353
33.695,36.343
34.063,36.325
34.494,36.299
34.985,36.264
35.529,36.221
36.117,36.171
36.74,36.114
37.384,36.053
38.035,35.987
38.681,35.918
39.306,35.847
39.9,35.774
40.449,35.7
40.944,35.624
41.378,35.547
41.747,35.468
42.047,35.387
42.278,35.305
42.442,35.224
42.54,35.142
42.579,35.059
42.563,34.977
42.497,34.894
42.388,34.812
42.243,34.729
42.068,34.647
41.871,34.565
41.656,34.484
41.428,34.404
41.191,34.325
40.946,34.247
40.698,34.169
40.448,34.09
40.197,34.011
39.947,33.933
39.7,33.854
39.456,33.776
39.217,33.7
38.982,33.626
38.753,33.554
38.529,33.485
38.312,33.417
38.098,33.353
37.889,33.291
37.683,33.232
37.481,33.176
37.282,33.121
37.088,33.069
36.898,33.018
36.713,32.969
36.536,32.923
36.365,32.88
36.202,32.84
36.047,32.804
35.898,32.773
35.757,32.745
35.621,32.721
35.491,32.699
35.365,32.679
35.243,32.658
35.126,32.635
35.012,32.608
34.902,32.579
34.798,32.55
34.7,32.521
34.61,32.494
34.53,32.471
34.461,32.45
34.405,32.431
34.361,32.415
34.331,32.4
34.316,32.387
34.315,32.375
34.329,32.365
34.357,32.357
34.398,32.351
34.451,32.347
34.515,32.345
34.588,32.345
34.669,32.345
34.756,32.343
34.846,32.341
34.938,32.336
35.032,32.329
35.126,32.321
35.217,32.313
35.305,32.307
35.389,32.301
35.467,32.295
35.538,32.289
35.601,32.282
35.652,32.273
35.692,32.263
35.718,32.249
35.73,32.234
35.729,32.216
35.716,32.196
35.69,32.173
35.655,32.149
35.611,32.125
35.56,32.1
35.503,32.076
35.441,32.05
35.376,32.024
35.305,31.997
35.225,31.97
35.134,31.945
35.032,31.925
34.92,31.911
34.801,31.908
34.678,31.919
34.552,31.95
34.426,32.006
34.304,32.096
34.186,32.225
34.075,32.401
33.97,32.63
33.873,32.917
33.782,33.266
33.698,33.675
33.618,34.143
33.542,34.662
33.467,35.226
33.392,35.823
33.316,36.441
33.236,37.068
33.153,37.689
33.065,38.29
32.975,38.861
32.882,39.39
32.788,39.867
32.695,40.286
32.604,40.642
32.515,40.933
32.43,41.16
32.348,41.325
32.269,41.43
32.195,41.482
32.125,41.485
32.058,41.446
31.996,41.369
31.938,41.263
31.883,41.131
31.833,40.979
31.787,40.813
31.747,40.636
31.713,40.452
31.685,40.263
31.663,40.07
31.647,39.874
31.638,39.678
31.633,39.481
31.633,39.285
31.635,39.091
31.64,38.898
31.647,38.708
31.656,38.52
31.666,38.334
31.677,38.15
31.688,37.969
31.7,37.791
31.712,37.614
31.726,37.44
31.741,37.269
31.759,37.102
31.779,36.939
31.801,36.782
31.825,36.63
31.85,36.483
31.876,36.342
31.904,36.205
31.933,36.073
31.961,35.943
31.989,35.816
32.017,35.691
32.044,35.566
32.072,35.443
32.1,35.322
32.128,35.202
32.157,35.086
32.186,34.973
32.215,34.865
32.244,34.763
32.271,34.669
32.295,34.583
32.317,34.506
32.337,34.439
32.352,34.384
32.362,34.34
32.369,34.31
32.373,34.292
32.373,34.289
32.37,34.3
32.366,34.326
32.361,34.367
32.356,34.422
32.352,34.49
32.35,34.568
32.35,34.657
32.356,34.753
32.367,34.856
32.386,34.965
32.419,35.078
32.471,35.193
32.548,35.308
32.66,35.421
32.815,35.53
33.021,35.633
33.285,35.729
33.612,35.816
34.005,35.892
34.46,35.958
34.974,36.012
35.54,36.054
36.148,36.083
36.784,36.099
37.436,36.102
38.089,36.092
38.73,36.07
39.346,36.039
39.925,35.999
40.459,35.953
40.938,35.902
41.357,35.846
41.711,35.786
41.999,35.722
42.219,35.656
42.372,35.585
42.462,35.511
42.49,35.434
42.461,35.354
42.382,35.271
42.258,35.187
42.095,35.103
41.901,35.018
41.68,34.932
41.44,34.846
41.184,34.758
40.92,34.669
40.65,34.577
40.381,34.484
40.116,34.389
39.857,34.291
39.605,34.192
39.363,34.092
39.129,33.993
38.905,33.897
38.69,33.802
38.483,33.709
38.284,33.617
38.093,33.527
37.908,33.438
37.728,33.35
37.552,33.266
37.376,33.184
37.195,33.106
37.008,33.029
36.815,32.955
36.618,32.884
36.418,32.817
36.219,32.752
36.024,32.691
35.835,32.632
35.655,32.575
35.487,32.52
35.332,32.468
35.192,32.42
35.066,32.375
34.955,32.333
34.859,32.294
34.777,32.257
34.708,32.222
34.653,32.19
34.61,32.159
34.58,32.131
34.56,32.105
34.553,32.081
34.557,32.058
34.573,32.037
34.601,32.018
34.64,32.002
34.691,31.989
34.754,31.979
34.828,31.972
34.912,31.967
35.005,31.964
35.107,31.964
35.217,31.967
35.333,31.974
35.454,31.983
35.579,31.994
35.705,32.008
35.831,32.024
35.954,32.042
36.072,32.06
36.185,32.08
36.291,32.098
36.389,32.115
36.479,32.131
36.56,32.145
36.632,32.157
36.693,32.168
36.744,32.182
36.785,32.197
36.815,32.213
36.833,32.228
36.838,32.24
36.831,32.25
36.812,32.257
36.781,32.261
36.737,32.262
36.682,32.26
36.616,32.256
36.539,32.25
36.453,32.244
36.36,32.236
36.258,32.228
36.15,32.22
36.035,32.211
35.915,32.201
35.79,32.19
35.661,32.179
35.53,32.168
35.396,32.158
35.262,32.153
35.128,32.155
34.994,32.168
34.86,32.195
34.727,32.243
34.594,32.318
34.462,32.427
34.332,32.576
34.203,32.773
34.077,33.023
33.954,33.331
33.835,33.698
33.722,34.124
33.612,34.606
33.507,35.136
33.404,35.708
33.304,36.309
33.206,36.928
33.11,37.551
33.018,38.167
32.929,38.763
32.845,39.325
32.766,39.844
32.693,40.312
32.626,40.723
32.565,41.072
32.509,41.356
32.458,41.577
32.411,41.736
32.367,41.836
32.327,41.879
32.29,41.871
32.257,41.817
32.23,41.721
32.208,41.59
32.192,41.427
32.182,41.239
32.178,41.032
32.181,40.81
32.191,40.579
32.206,40.342
32.226,40.105
32.249,39.869
32.275,39.637
32.302,39.41
32.33,39.19
32.357,38.976
32.383,38.769
32.41,38.566
32.437,38.367
32.466,38.172
32.496,37.978
32.528,37.784
32.561,37.588
32.595,37.391
32.628,37.192
32.659,36.993
32.685,36.796
32.707,36.601
32.723,36.409
32.734,36.22
32.74,36.036
32.743,35.855
32.745,35.679
32.746,35.506
32.75,35.334
32.755,35.164
32.764,34.993
32.776,34.823
32.791,34.654
32.81,34.489
32.833,34.329
32.864,34.178
32.906,34.036
32.966,33.906
33.051,33.791
33.17,33.691
33.331,33.606
33.543,33.537
33.812,33.484
34.143,33.446
34.539,33.426
34.999,33.423
35.517,33.438
36.087,33.472
36.696,33.526
37.334,33.597
37.986,33.686
38.638,33.792
39.278,33.914
39.89,34.05
40.462,34.199
40.986,34.356
41.452,34.521
41.854,34.689
42.19,34.859
42.456,35.028
42.654,35.195
42.785,35.357
42.855,35.513
42.868,35.66
42.83,35.797
42.749,35.921
42.63,36.031
42.481,36.126
42.306,36.205
42.111,36.268
41.902,36.316
41.683,36.348
41.459,36.365
41.232,36.366
41.005,36.352
40.778,36.324
40.552,36.283
40.327,36.233
40.103,36.173
39.88,36.106
39.658,36.034
39.437,35.958
39.218,35.878
39.002,35.796
38.789,35.712
38.579,35.625
38.373,35.536
38.172,35.443
37.975,35.349
37.783,35.253
37.594,35.154
37.409,35.053
37.228,34.949
37.051,34.843
36.879,34.737
36.711,34.632
36.548,34.528
36.392,34.425
36.243,34.325
36.102,34.226
35.968,34.129
35.841,34.033
35.72,33.94
35.605,33.848
35.496,33.759
35.393,33.672
35.299,33.588
35.213,33.508
35.138,33.432
35.074,33.36
35.022,33.292
34.984,33.228
34.959,33.168
34.948,33.113
34.95,33.062
34.967,33.015
34.997,32.972
35.038,32.932
35.09,32.896
35.153,32.862
35.223,32.829
35.302,32.798
35.386,32.769
35.475,32.742
35.566,32.715
35.659,32.69
35.75,32.664
35.839,32.639
35.926,32.614
36.009,32.589
36.088,32.563
36.163,32.539
36.232,32.516
36.297,32.496
36.354,32.478
36.403,32.462
36.444,32.448
36.473,32.435
36.492,32.422
36.497,32.409
36.488,32.396
36.463,32.382
36.423,32.368
36.368,32.354
36.3,32.341
36.22,32.329
36.132,32.319
36.038,32.311
35.939,32.309
35.836,32.315
35.731,32.332
35.624,32.366
35.518,32.423
35.412,32.508
35.307,32.631
35.204,32.797
35.102,33.012
35.001,33.284
34.899,33.613
34.797,34.001
34.694,34.447
34.59,34.946
34.485,35.492
34.382,36.074
34.281,36.68
34.182,37.298
34.087,37.913
33.998,38.514
33.914,39.086
33.836,39.619
33.761,40.104
33.689,40.533
33.618,40.902
33.547,41.207
33.477,41.448
33.405,41.625
33.331,41.743
33.255,41.805
33.176,41.815
33.097,41.78
33.018,41.703
32.942,41.591
32.87,41.449
32.804,41.284
32.743,41.101
32.688,40.904
32.638,40.699
32.593,40.488
32.553,40.274
32.517,40.059
32.483,39.846
32.453,39.636
32.424,39.43
32.399,39.228
32.376,39.03
32.356,38.834
32.339,38.641
32.327,38.449
32.318,38.258
32.312,38.068
32.308,37.879
32.305,37.688
32.305,37.497
32.305,37.304
32.307,37.111
32.31,36.917
32.316,36.724
32.324,36.531
32.336,36.338
32.353,36.146
32.374,35.954
32.399,35.763
32.428,35.573
32.458,35.385
32.488,35.199
32.519,35.017
32.547,34.839
32.574,34.666
32.599,34.501
32.62,34.344
32.638,34.197
32.652,34.062
32.662,33.94
32.67,33.831
32.673,33.738
32.674,33.661
32.673,33.602
32.671,33.561
32.666,33.54
32.659,33.539
32.649,33.557
32.637,33.594
32.622,33.649
32.606,33.721
32.591,33.808
32.578,33.911
32.569,34.028
32.569,34.156
32.582,34.296
32.615,34.443
32.673,34.597
32.763,34.755
32.892,34.914
33.066,35.072
33.292,35.227
33.574,35.377
33.914,35.52
34.311,35.654
34.763,35.777
35.263,35.886
35.805,35.982
36.377,36.064
36.969,36.133
37.566,36.187
38.156,36.228
38.726,36.256
39.263,36.272
39.759,36.275
40.205,36.268
40.594,36.25
40.924,36.222
41.191,36.184
41.396,36.138
41.541,36.084
41.628,36.023
41.662,35.956
41.647,35.883
41.591,35.806
41.498,35.726
41.374,35.644
41.225,35.56
41.055,35.476
40.869,35.39
40.671,35.303
40.465,35.215
40.252,35.126
40.035,35.037
39.816,34.95
39.594,34.864
39.373,34.78
39.151,34.698
38.93,34.618
38.709,34.538
38.49,34.459
38.271,34.38
38.055,34.301
37.841,34.223
37.629,34.145
37.42,34.067
37.213,33.989
37.01,33.913
36.81,33.839
36.615,33.768
36.425,33.7
36.24,33.637
36.061,33.578
35.887,33.524
35.719,33.473
35.555,33.425
35.396,33.381
35.242,33.341
35.093,33.305
34.948,33.273
34.808,33.246
34.674,33.224
34.546,33.207
34.423,33.195
34.307,33.188
34.198,33.184
34.097,33.184
34.005,33.185
33.924,33.187
33.855,33.189
33.8,33.191
33.76,33.194
33.738,33.197
33.734,33.202
33.75,33.209
33.785,33.217
33.838,33.224
33.908,33.231
33.993,33.235
34.091,33.236
34.199,33.235
34.314,33.23
34.435,33.221
34.559,33.211
34.686,33.2
34.812,33.187
34.937,33.174
35.059,33.16
35.178,33.147
35.294,33.134
35.405,33.123
35.512,33.115
35.612,33.112
35.705,33.118
35.788,33.138
35.86,33.178
35.921,33.246
35.968,33.35
36.001,33.499
36.018,33.698
36.019,33.956
36.003,34.277
35.971,34.663
35.923,35.111
35.861,35.618
35.788,36.175
35.708,36.772
35.622,37.396
35.533,38.033
35.443,38.669
35.355,39.289
35.269,39.881
35.183,40.434
35.098,40.94
35.012,41.39
34.923,41.781
34.831,42.109
34.733,42.374
34.63,42.576
34.521,42.718
34.405,42.804
34.285,42.838
34.161,42.828
34.035,42.779
33.907,42.697
33.78,42.589
33.654,42.46
33.532,42.315
33.415,42.159
33.302,41.995
33.193,41.825
33.09,41.65
32.992,41.473
32.897,41.294
32.806,41.115
32.718,40.936
32.631,40.758
32.546,40.583
32.463,40.408
32.383,40.236
32.306,40.066
32.233,39.898
32.164,39.733
32.101,39.571
32.043,39.413
31.99,39.258
31.943,39.108
31.899,38.961
31.859,38.819
31.823,38.681
31.792,38.545
31.766,38.412
31.747,38.281
31.735,38.152
31.731,38.024
31.735,37.897
31.746,37.769
31.762,37.639
31.781,37.505
31.803,37.368
31.827,37.227
31.852,37.083
31.878,36.938
31.905,36.792
31.934,36.648
31.965,36.508
31.998,36.372
32.033,36.244
32.069,36.124
32.106,36.015
32.142,35.917
32.178,35.833
32.213,35.763
32.245,35.707
32.277,35.667
32.306,35.643
32.332,35.637
32.356,35.648
32.377,35.678
32.395,35.726
32.412,35.792
32.426,35.877
32.439,35.977
32.448,36.091
32.455,36.216
32.458,36.348
32.458,36.484
32.457,36.621
32.455,36.755
32.453,36.882
32.454,37.001
32.458,37.108
32.468,37.203
32.485,37.284
32.511,37.35
32.551,37.403
32.608,37.442
32.689,37.467
32.799,37.48
32.944,37.481
33.125,37.469
33.349,37.446
33.623,37.411
33.95,37.365
34.333,37.312
34.772,37.25
35.262,37.182
35.798,37.109
36.37,37.032
36.966,36.952
37.573,36.871
38.178,36.79
38.767,36.711
39.328,36.633
39.85,36.557
40.322,36.483
40.737,36.408
41.088,36.333
41.372,36.256
41.588,36.177
41.738,36.095
41.825,36.01
41.852,35.923
41.825,35.834
41.748,35.743
41.629,35.65
41.475,35.557
41.291,35.462
41.085,35.366
40.863,35.27
40.632,35.175
40.395,35.08
40.156,34.985
39.919,34.889
39.684,34.794
39.455,34.699
39.231,34.604
39.011,34.51
38.796,34.417
38.584,34.323
38.375,34.228
38.168,34.133
37.962,34.036
37.757,33.938
37.552,33.836
37.346,33.732
37.14,33.624
36.934,33.513
36.726,33.398
36.52,33.281
36.321,33.161
36.132,33.037
35.952,32.911
35.78,32.782
35.612,32.65
35.447,32.516
35.282,32.381
35.115,32.246
34.946,32.111
34.773,31.976
34.597,31.843
34.422,31.711
34.248,31.581
34.08,31.453
33.92,31.325
33.773,31.198
33.642,31.072
33.532,30.948
33.445,30.825
33.384,30.705
33.35,30.587
33.345,30.474
33.366,30.364
33.414,30.259
33.486,30.159
33.58,30.064
33.693,29.975
33.824,29.893
33.968,29.82
34.122,29.756
34.284,29.704
34.45,29.665
34.618,29.642
34.785,29.637
34.95,29.655
35.11,29.7
35.264,29.777
35.41,29.895
35.548,30.062
35.675,30.285
35.792,30.573
35.897,30.934
35.988,31.373
36.065,31.892
36.127,32.491
36.174,33.166
36.204,33.908
36.217,34.706
36.213,35.545
36.193,36.408
36.158,37.277
36.109,38.134
36.049,38.96
35.981,39.74
35.904,40.459
35.82,41.106
35.731,41.671
35.636,42.149
35.538,42.538
35.437,42.839
35.332,43.055
35.226,43.192
35.117,43.258
35.008,43.26
34.898,43.207
34.787,43.11
34.675,42.978
34.561,42.818
34.445,42.64
34.326,42.448
34.205,42.25
34.083,42.049
33.959,41.848
33.837,41.648
33.715,41.45
33.596,41.255
33.478,41.062
33.364,40.871
33.252,40.68
33.144,40.489
33.039,40.297
32.938,40.102
32.841,39.904
32.747,39.701
32.658,39.491
32.575,39.275
32.495,39.052
32.419,38.823
32.347,38.589
32.277,38.35
32.21,38.106
32.146,37.86
32.085,37.612
32.028,37.364
31.975,37.116
31.926,36.868
31.882,36.619
31.842,36.37
31.806,36.12
31.774,35.869
31.745,35.616
31.72,35.361
31.698,35.106
31.679,34.851
31.663,34.6
31.652,34.355
31.644,34.118
31.64,33.891
31.641,33.676
31.648,33.474
31.659,33.287
31.674,33.115
31.693,32.961
31.716,32.826
31.742,32.711
31.769,32.617
31.796,32.545
31.82,32.496
31.843,32.47
31.864,32.469
31.885,32.492
31.906,32.537
31.929,32.602
31.953,32.685
31.98,32.785
32.01,32.899
32.041,33.026
32.071,33.166
32.1,33.318
32.126,33.482
32.15,33.655
32.171,33.838
32.191,34.028
32.21,34.224
32.23,34.423
32.253,34.623
32.282,34.821
32.319,35.013
32.369,35.198
32.438,35.372
32.531,35.534
32.653,35.683
32.813,35.819
33.014,35.94
33.263,36.048
33.562,36.142
33.912,36.222
34.313,36.289
34.763,36.344
35.256,36.385
35.785,36.415
36.341,36.433
36.915,36.44
37.496,36.438
38.072,36.426
38.633,36.408
39.167,36.382
39.665,36.352
40.119,36.318
40.523,36.282
40.871,36.246
41.16,36.209
41.389,36.172
41.558,36.134
41.667,36.096
41.719,36.057
41.72,36.016
41.673,35.973
41.584,35.927
41.459,35.878
41.303,35.825
41.121,35.767
40.918,35.704
40.701,35.633
40.471,35.554
40.232,35.466
39.987,35.369
39.738,35.264
39.487,35.15
39.235,35.028
38.984,34.899
38.732,34.763
38.482,34.622
38.233,34.475
37.986,34.325
37.74,34.17
37.497,34.01
37.257,33.846
37.02,33.678
36.785,33.506
36.554,33.333
36.326,33.159
36.1,32.985
35.876,32.812
35.655,32.639
35.436,32.467
35.219,32.296
35.006,32.126
34.798,31.958
34.593,31.793
34.395,31.631
34.204,31.473
34.021,31.32
33.847,31.173
33.683,31.032
33.529,30.9
33.388,30.777
33.261,30.663
33.149,30.56
33.053,30.469
32.977,30.392
32.921,30.332
32.888,30.296
32.879,30.288
32.895,30.315
32.937,30.385
33.004,30.505
33.095,30.682
33.208,30.923
33.341,31.234
33.493,31.618
33.66,32.077
33.841,32.608
34.032,33.207
34.232,33.867
34.437,34.577
34.646,35.324
34.855,36.094
35.061,36.87
35.263,37.636
35.457,38.378
35.642,39.08
35.814,39.73
35.971,40.316
36.112,40.832
36.236,41.271
36.342,41.632
36.428,41.914
36.494,42.119
36.54,42.252
36.566,42.318
36.573,42.325
36.562,42.28
36.536,42.19
36.496,42.064
36.444,41.908
36.383,41.73
36.312,41.537
36.235,41.333
36.152,41.123
36.064,40.912
35.973,40.703
35.879,40.497
35.783,40.296
35.685,40.1
35.586,39.911
35.485,39.728
35.38,39.549
35.271,39.375
35.158,39.204
35.04,39.036
34.917,38.869
34.791,38.705
34.661,38.542
34.53,38.383
34.398,38.228
34.268,38.078
34.14,37.934
34.017,37.797
33.9,37.666
33.788,37.543
33.681,37.427
33.578,37.318
33.479,37.218
33.383,37.125
33.289,37.039
33.199,36.961
33.114,36.89
33.033,36.828
32.959,36.777
32.891,36.737
32.828,36.709
32.769,36.694
32.716,36.694
32.666,36.708
32.62,36.737
32.576,36.778
32.533,36.83
32.492,36.894
32.453,36.966
32.416,37.047
32.38,37.133
32.345,37.224
32.313,37.317
32.283,37.411
32.256,37.502
32.232,37.59
32.213,37.673
32.197,37.75
32.185,37.818
32.174,37.876
32.164,37.924
32.155,37.961
32.147,37.985
32.14,37.997
32.134,37.996
32.132,37.982
32.132,37.957
32.137,37.92
32.149,37.873
32.167,37.817
32.195,37.753
32.233,37.683
32.286,37.606
32.358,37.525
32.453,37.441
32.578,37.353
32.74,37.262
32.944,37.169
33.196,37.073
33.5,36.977
33.858,36.878
34.269,36.777
34.731,36.674
35.237,36.567
35.781,36.457
36.353,36.346
36.941,36.234
37.535,36.122
38.122,36.009
38.692,35.897
39.233,35.786
39.736,35.676
40.193,35.568
40.598,35.461
40.944,35.357
41.229,35.254
41.45,35.155
41.609,35.059
41.708,34.968
41.75,34.881
41.741,34.799
41.685,34.722
41.586,34.65
41.452,34.582
41.288,34.517
41.099,34.457
40.89,34.4
40.668,34.346
40.435,34.296
40.196,34.249
39.954,34.206
39.711,34.166
39.468,34.129
39.228,34.094
38.989,34.06
38.751,34.029
38.515,34
38.279,33.973
38.042,33.95
37.806,33.929
37.569,33.911
37.333,33.894
37.098,33.88
36.865,33.865
36.633,33.852
36.403,33.838
36.175,33.824
35.949,33.808
35.724,33.792
35.501,33.776
35.28,33.758
35.061,33.741
34.844,33.727
34.631,33.715
34.42,33.708
34.214,33.708
34.012,33.715
33.817,33.733
33.631,33.765
33.455,33.817
33.292,33.894
33.145,34.003
33.018,34.15
32.912,34.342
32.829,34.582
32.773,34.874
32.744,35.219
32.742,35.614
32.766,36.058
32.815,36.542
32.889,37.06
32.984,37.602
33.098,38.154
33.23,38.705
33.377,39.242
33.536,39.754
33.707,40.231
33.888,40.665
34.076,41.051
34.27,41.383
34.467,41.661
34.667,41.884
34.864,42.055
35.058,42.175
35.245,42.248
35.423,42.279
35.588,42.272
35.738,42.232
35.871,42.164
35.985,42.073
36.08,41.965
36.153,41.843
36.205,41.71
36.235,41.57
36.245,41.423
36.235,41.272
36.21,41.117
36.171,40.961
36.122,40.803
36.065,40.643
36.004,40.48
35.94,40.316
35.875,40.149
35.808,39.982
35.74,39.814
35.669,39.646
35.594,39.478
35.515,39.309
35.429,39.142
35.335,38.977
35.235,38.815
35.127,38.657
35.013,38.503
34.893,38.357
34.768,38.218
34.64,38.087
34.51,37.964
34.381,37.849
34.253,37.742
34.128,37.64
34.006,37.544
33.885,37.453
33.766,37.363
33.65,37.275
33.535,37.187
33.424,37.098
33.315,37.009
33.217,36.921
33.133,36.832
33.061,36.744
33.002,36.658
32.952,36.574
32.908,36.493
32.866,36.417
32.824,36.346
32.78,36.28
32.732,36.222
32.679,36.17
32.62,36.127
32.556,36.092
32.489,36.066
32.419,36.049
32.348,36.041
32.278,36.042
32.21,36.051
32.145,36.069
32.084,36.092
32.029,36.121
31.979,36.154
31.936,36.19
31.898,36.225
31.867,36.26
31.842,36.291
31.822,36.319
31.806,36.342
31.794,36.359
31.785,36.369
31.778,36.373
31.774,36.372
31.774,36.366
31.778,36.356
31.787,36.343
31.8,36.329
31.818,36.316
31.84,36.303
31.867,36.292
31.902,36.282
31.946,36.273
32.004,36.264
32.081,36.256
32.184,36.247
32.32,36.238
32.497,36.228
32.722,36.218
33.001,36.207
33.339,36.195
33.737,36.183
34.195,36.169
34.71,36.153
35.273,36.136
35.874,36.116
36.502,36.094
37.144,36.07
37.786,36.044
38.416,36.014
39.019,35.981
39.586,35.945
40.105,35.905
40.569,35.861
40.971,35.814
41.307,35.765
41.576,35.715
41.777,35.664
41.913,35.613
41.987,35.562
42.004,35.512
41.97,35.46
41.89,35.408
41.773,35.353
41.623,35.296
41.447,35.238
41.25,35.177
41.037,35.115
40.814,35.052
40.584,34.986
40.351,34.92
40.116,34.853
39.882,34.786
39.65,34.718
39.42,34.65
39.193,34.581
38.97,34.511
38.75,34.441
38.534,34.369
38.321,34.298
38.113,34.228
37.908,34.159
37.709,34.092
37.513,34.026
37.32,33.961
37.13,33.899
36.942,33.839
36.756,33.78
36.57,33.725
36.385,33.671
36.201,33.621
36.018,33.573
35.836,33.53
35.652,33.492
35.467,33.46
35.282,33.433
35.096,33.411
34.912,33.397
34.731,33.396
34.555,33.415
34.389,33.462
34.233,33.544
34.091,33.669
33.966,33.84
33.858,34.062
33.77,34.336
33.702,34.66
33.653,35.029
33.622,35.438
33.608,35.879
33.613,36.342
33.634,36.818
33.673,37.296
33.73,37.765
33.804,38.214
33.895,38.637
34.003,39.024
34.126,39.37
34.263,39.67
34.41,39.922
34.566,40.124
34.726,40.279
34.886,40.387
35.045,40.453
35.2,40.478
35.347,40.467
35.486,40.424
35.613,40.353
35.726,40.258
35.826,40.141
35.911,40.007
35.982,39.86
36.038,39.702
36.079,39.537
36.107,39.368
36.121,39.197
36.123,39.025
36.115,38.854
36.098,38.686
36.073,38.522
36.04,38.363
36,38.208
35.952,38.058
35.897,37.913
35.835,37.772
35.766,37.635
35.692,37.501
35.613,37.371
35.528,37.243
35.438,37.121
35.341,37.003
35.239,36.891
35.132,36.785
35.019,36.684
34.902,36.59
34.782,36.501
34.659,36.419
34.536,36.342
34.411,36.271
34.287,36.203
34.163,36.14
34.04,36.079
33.92,36.02
33.802,35.962
33.687,35.904
33.576,35.846
33.467,35.786
33.36,35.726
33.257,35.665
33.156,35.605
33.058,35.544
32.963,35.484
32.873,35.425
32.788,35.369
32.706,35.317
32.628,35.269
32.554,35.228
32.483,35.194
32.416,35.167
32.353,35.147
32.292,35.134
32.236,35.129
32.183,35.131
32.135,35.14
32.092,35.154
32.055,35.171
32.022,35.191
31.994,35.211
31.971,35.232
31.953,35.251
31.939,35.271
31.93,35.289
31.925,35.307
31.925,35.323
31.937,35.336
31.966,35.347
32.01,35.352
32.063,35.352
32.122,35.346
32.182,35.335
32.238,35.318
32.285,35.297
32.32,35.273
32.341,35.245
32.347,35.215
32.34,35.183
32.32,35.149
32.291,35.112
32.256,35.073
32.219,35.031
32.187,34.986
32.167,34.937
32.166,34.885
32.193,34.829
32.256,34.771
32.362,34.712
32.519,34.653
32.734,34.596
33.01,34.542
33.349,34.49
33.75,34.441
34.21,34.393
34.723,34.346
35.28,34.299
35.87,34.252
36.482,34.204
37.103,34.154
37.718,34.104
38.315,34.054
38.881,34.004
39.407,33.954
39.883,33.905
40.302,33.856
40.66,33.807
40.954,33.757
41.185,33.707
41.352,33.656
41.459,33.604
41.51,33.552
41.509,33.5
41.462,33.449
41.374,33.4
41.251,33.354
41.098,33.31
40.922,33.268
40.727,33.227
40.518,33.186
40.301,33.147
40.078,33.108
39.852,33.07
39.626,33.033
39.4,32.997
39.179,32.961
38.961,32.927
38.749,32.895
38.542,32.866
38.341,32.841
38.147,32.818
37.958,32.798
37.774,32.78
37.593,32.763
37.415,32.749
37.238,32.735
37.059,32.723
36.88,32.711
36.698,32.698
36.515,32.685
36.329,32.672
36.143,32.657
35.957,32.643
35.77,32.627
35.586,32.612
35.404,32.596
35.226,32.583
35.054,32.573
34.887,32.57
34.729,32.579
34.579,32.603
34.438,32.649
34.307,32.723
34.186,32.832
34.076,32.982
33.978,33.18
33.892,33.429
33.817,33.733
33.756,34.093
33.709,34.507
33.676,34.969
33.66,35.471
33.662,36.006
33.682,36.56
33.722,37.124
33.779,37.686
33.847,38.235
33.923,38.759
34.005,39.25
34.094,39.698
34.194,40.097
34.304,40.443
34.426,40.734
34.556,40.967
34.694,41.143
34.836,41.264
34.979,41.333
35.119,41.354
35.255,41.332
35.382,41.27
35.499,41.176
35.605,41.053
35.699,40.907
35.781,40.743
35.852,40.564
35.91,40.375
35.956,40.178
35.99,39.977
36.013,39.773
36.023,39.569
36.022,39.366
36.007,39.164
35.981,38.964
35.942,38.768
35.893,38.573
35.836,38.38
35.771,38.188
35.701,37.997
35.626,37.807
35.547,37.616
35.466,37.426
35.384,37.235
35.299,37.045
35.213,36.854
35.126,36.664
35.036,36.475
34.945,36.287
34.851,36.101
34.756,35.918
34.658,35.737
34.559,35.558
34.459,35.381
34.359,35.204
34.257,35.029
34.155,34.854
34.053,34.679
33.952,34.505
33.851,34.333
33.751,34.164
33.653,33.999
33.556,33.842
33.463,33.695
33.372,33.559
33.286,33.438
33.203,33.333
33.122,33.244
33.046,33.171
32.973,33.115
32.905,33.077
32.843,33.058
32.786,33.058
32.734,33.078
32.687,33.119
32.645,33.181
32.607,33.262
