Trial 1:0back,Trial 6:0back
36.478,37.375
36.491,37.116
36.51,36.862
36.533,36.613
36.558,36.37
36.585,36.133
36.61,35.904
36.634,35.682
36.654,35.468
36.672,35.263
36.686,35.068
36.695,34.882
36.7,34.708
36.701,34.546
36.697,34.398
36.688,34.266
36.674,34.151
36.654,34.055
36.627,33.979
36.593,33.923
36.553,33.887
36.507,33.872
36.457,33.878
36.403,33.905
36.347,33.953
36.288,34.023
36.227,34.113
36.165,34.224
36.103,34.352
36.04,34.497
35.977,34.655
35.913,34.824
35.85,35.003
35.787,35.188
35.724,35.378
35.663,35.569
35.605,35.758
35.548,35.941
35.494,36.115
35.443,36.277
35.394,36.424
35.347,36.554
35.301,36.665
35.256,36.754
35.212,36.823
35.17,36.87
35.129,36.897
35.088,36.902
35.048,36.888
35.009,36.853
34.971,36.799
34.932,36.728
34.895,36.641
34.858,36.539
34.823,36.426
34.788,36.301
34.753,36.167
34.718,36.024
34.683,35.876
34.648,35.721
34.613,35.563
34.578,35.401
34.545,35.237
34.512,35.073
34.48,34.909
34.45,34.748
34.421,34.591
34.394,34.438
34.368,34.29
34.344,34.147
34.32,34.009
34.297,33.876
34.275,33.747
34.253,33.624
34.231,33.507
34.209,33.394
34.188,33.287
34.167,33.183
34.147,33.083
34.126,32.988
34.105,32.896
34.086,32.808
34.076,32.725
34.082,32.646
34.1,32.571
34.128,32.501
34.16,32.436
34.191,32.375
34.216,32.32
34.231,32.269
34.234,32.225
34.221,32.187
34.192,32.154
34.148,32.127
34.09,32.104
34.022,32.085
33.945,32.069
33.865,32.056
33.783,32.045
33.703,32.036
33.626,32.028
33.556,32.021
33.494,32.013
33.441,32.003
33.399,31.992
33.369,31.979
33.35,31.963
33.344,31.945
33.352,31.924
33.375,31.901
33.414,31.876
33.47,31.849
33.545,31.821
33.637,31.792
33.749,31.763
33.881,31.734
34.033,31.704
34.207,31.675
34.402,31.648
34.618,31.623
34.853,31.601
35.105,31.583
35.37,31.57
35.644,31.564
35.925,31.565
36.208,31.577
36.491,31.601
36.77,31.642
37.042,31.704
37.305,31.79
37.556,31.907
37.793,32.06
38.014,32.257
38.217,32.504
38.4,32.805
38.563,33.163
38.705,33.579
38.825,34.05
38.925,34.571
39.003,35.135
39.061,35.733
39.098,36.355
39.115,36.987
39.114,37.62
39.095,38.241
39.059,38.84
39.009,39.409
38.946,39.939
38.873,40.425
38.791,40.861
38.702,41.244
38.609,41.572
38.514,41.844
38.418,42.063
38.323,42.229
38.23,42.347
38.138,42.421
38.05,42.454
37.966,42.451
37.885,42.416
37.809,42.354
37.738,42.268
37.67,42.16
37.604,42.034
37.54,41.891
37.475,41.732
37.409,41.556
37.341,41.365
37.271,41.158
37.199,40.937
37.125,40.704
37.05,40.459
36.975,40.205
36.901,39.945
36.828,39.679
36.756,39.409
36.686,39.136
36.618,38.862
36.554,38.587
36.495,38.314
36.441,38.042
36.393,37.774
36.35,37.51
36.314,37.25
36.285,36.995
36.262,36.745
36.244,36.499
36.231,36.258
36.223,36.02
36.219,35.787
36.221,35.559
36.227,35.339
36.237,35.129
36.249,34.93
36.264,34.744
36.279,34.575
36.295,34.423
36.311,34.291
36.327,34.178
36.341,34.085
36.353,34.011
36.363,33.958
36.369,33.923
36.372,33.909
36.369,33.915
36.36,33.94
36.346,33.985
36.328,34.049
36.305,34.131
36.279,34.23
36.248,34.344
36.213,34.472
36.173,34.61
36.129,34.756
36.082,34.908
36.03,35.062
35.974,35.216
35.914,35.368
35.853,35.516
35.79,35.656
35.727,35.788
35.662,35.908
35.596,36.015
35.529,36.107
35.461,36.184
35.391,36.243
35.321,36.284
35.251,36.307
35.182,36.312
35.115,36.299
35.05,36.268
34.988,36.221
34.928,36.158
34.87,36.082
34.815,35.993
34.76,35.894
34.706,35.786
34.655,35.67
34.605,35.55
34.558,35.424
34.513,35.295
34.472,35.163
34.434,35.028
34.399,34.89
34.366,34.749
34.336,34.605
34.308,34.458
34.283,34.309
34.259,34.16
34.238,34.013
34.218,33.869
34.198,33.73
34.179,33.595
34.161,33.465
34.143,33.34
34.125,33.221
34.107,33.109
34.089,33.003
34.071,32.904
34.053,32.811
34.034,32.723
34.013,32.641
33.992,32.563
33.97,32.489
33.947,32.419
33.925,32.352
33.902,32.289
33.881,32.23
33.86,32.174
33.838,32.121
33.814,32.07
33.79,32.022
33.765,31.978
33.74,31.939
33.717,31.906
33.695,31.876
33.676,31.85
33.657,31.826
33.641,31.802
33.625,31.778
33.608,31.752
33.588,31.725
33.565,31.697
33.539,31.668
33.513,31.64
33.487,31.611
33.462,31.582
33.437,31.552
33.413,31.522
33.39,31.493
33.368,31.465
33.346,31.44
33.327,31.417
33.309,31.396
33.293,31.378
33.281,31.362
33.276,31.348
33.279,31.335
33.294,31.325
33.322,31.314
33.366,31.304
33.429,31.293
33.513,31.281
33.62,31.268
33.752,31.255
33.91,31.241
34.093,31.227
34.301,31.215
34.531,31.205
34.781,31.201
35.047,31.206
35.325,31.224
35.612,31.257
35.903,31.31
36.194,31.385
36.483,31.489
36.765,31.626
37.038,31.805
37.298,32.031
37.541,32.309
37.766,32.646
37.972,33.043
38.156,33.501
38.318,34.018
38.457,34.586
38.573,35.2
38.667,35.849
38.739,36.52
38.791,37.203
38.824,37.883
38.841,38.548
38.841,39.186
38.828,39.788
38.802,40.345
38.765,40.85
38.718,41.301
38.661,41.694
38.598,42.03
38.529,42.309
38.456,42.533
38.378,42.704
38.297,42.827
38.213,42.904
38.127,42.939
38.041,42.936
37.954,42.899
37.869,42.832
37.784,42.736
37.701,42.616
37.62,42.472
37.541,42.307
37.462,42.123
37.384,41.922
37.307,41.708
37.231,41.482
37.157,41.246
37.084,41.002
37.014,40.753
36.945,40.5
36.876,40.243
36.808,39.983
36.739,39.722
36.669,39.458
36.6,39.193
36.531,38.928
36.464,38.663
36.401,38.398
36.341,38.136
36.287,37.877
36.236,37.62
36.189,37.364
36.145,37.112
36.105,36.861
36.071,36.615
36.041,36.373
36.017,36.138
36,35.91
35.989,35.691
35.985,35.482
35.989,35.284
35.999,35.097
36.014,34.924
36.033,34.765
36.053,34.624
36.076,34.5
36.099,34.394
36.123,34.307
36.146,34.238
36.167,34.188
36.184,34.156
36.196,34.144
36.202,34.152
36.203,34.18
36.197,34.228
36.186,34.298
36.169,34.387
36.146,34.495
36.118,34.621
36.083,34.763
36.043,34.919
35.998,35.085
35.947,35.26
35.893,35.439
35.835,35.62
35.774,35.8
35.711,35.976
35.646,36.146
35.581,36.306
35.516,36.454
35.45,36.587
35.386,36.704
35.323,36.801
35.262,36.88
35.201,36.939
35.14,36.977
35.078,36.995
35.016,36.993
34.954,36.973
34.894,36.934
34.836,36.877
34.779,36.804
34.725,36.716
34.672,36.614
34.621,36.499
34.571,36.372
34.521,36.235
34.473,36.09
34.426,35.938
34.381,35.781
34.339,35.621
34.3,35.458
34.265,35.295
34.234,35.133
34.205,34.972
34.178,34.812
34.153,34.655
34.129,34.5
34.106,34.348
34.083,34.198
34.059,34.051
34.035,33.906
34.011,33.764
33.987,33.626
33.963,33.492
33.939,33.362
33.913,33.239
33.885,33.122
33.856,33.012
33.825,32.909
33.794,32.813
33.765,32.724
33.737,32.641
33.71,32.565
33.685,32.493
33.662,32.426
33.64,32.363
33.62,32.306
33.601,32.253
33.583,32.203
33.567,32.157
33.554,32.115
33.543,32.077
33.536,32.042
33.531,32.011
33.525,31.982
33.518,31.955
33.508,31.931
33.494,31.908
33.477,31.887
33.456,31.868
33.431,31.851
33.409,31.836
33.394,31.821
33.388,31.806
33.387,31.791
33.391,31.776
33.396,31.76
33.399,31.744
33.397,31.728
33.39,31.711
33.376,31.693
33.357,31.674
33.334,31.654
33.309,31.632
33.287,31.61
33.272,31.587
33.267,31.567
33.277,31.55
33.306,31.538
33.357,31.533
33.435,31.538
33.541,31.556
33.677,31.59
33.842,31.647
34.036,31.733
34.255,31.853
34.498,32.017
34.759,32.229
35.036,32.496
35.324,32.819
35.618,33.202
35.915,33.643
36.207,34.138
36.49,34.684
36.759,35.271
37.012,35.89
37.247,36.53
37.466,37.179
37.666,37.825
37.848,38.458
38.01,39.066
38.152,39.641
38.274,40.176
38.377,40.665
38.46,41.105
38.526,41.492
38.573,41.827
38.605,42.111
38.621,42.343
38.623,42.529
38.61,42.67
38.584,42.769
38.546,42.83
38.496,42.855
38.438,42.847
38.371,42.809
38.297,42.744
38.217,42.653
38.134,42.539
38.048,42.404
37.96,42.25
37.871,42.077
37.784,41.889
37.702,41.686
37.625,41.469
37.552,41.241
37.481,41.003
37.411,40.756
37.341,40.502
37.27,40.243
37.198,39.981
37.124,39.717
37.046,39.453
36.966,39.189
36.884,38.927
36.8,38.667
36.716,38.409
36.632,38.153
36.547,37.899
36.462,37.646
36.378,37.394
36.295,37.145
36.217,36.897
36.142,36.653
36.073,36.413
36.011,36.176
35.956,35.944
35.909,35.72
35.871,35.506
35.839,35.303
35.815,35.113
35.797,34.939
35.785,34.782
35.779,34.644
35.779,34.527
35.783,34.43
35.792,34.356
35.804,34.304
35.818,34.273
35.834,34.264
35.851,34.276
35.869,34.309
35.887,34.361
35.905,34.431
35.923,34.517
35.941,34.618
35.957,34.733
35.972,34.86
35.983,34.996
35.99,35.139
35.993,35.286
35.991,35.435
35.984,35.583
35.971,35.728
35.953,35.867
35.931,35.999
35.903,36.121
35.87,36.232
35.832,36.329
35.789,36.41
35.74,36.475
35.686,36.521
35.626,36.549
35.562,36.559
35.494,36.552
35.422,36.53
35.348,36.493
35.272,36.443
35.196,36.38
35.119,36.306
35.042,36.22
34.966,36.124
34.892,36.018
34.819,35.904
34.748,35.785
34.679,35.661
34.611,35.534
34.546,35.404
34.483,35.27
34.423,35.131
34.366,34.987
34.312,34.839
34.261,34.688
34.213,34.535
34.168,34.381
34.126,34.228
34.086,34.076
34.048,33.925
34.012,33.778
33.977,33.634
33.943,33.494
33.902,33.359
33.848,33.229
33.78,33.106
33.701,32.99
33.615,32.881
33.527,32.777
33.444,32.679
33.37,32.586
33.308,32.498
33.262,32.417
33.23,32.341
33.213,32.271
33.209,32.206
33.217,32.147
33.234,32.094
33.256,32.045
33.281,31.999
33.307,31.957
33.332,31.919
33.357,31.882
33.38,31.847
33.4,31.813
33.416,31.779
33.426,31.746
33.431,31.712
33.429,31.678
33.422,31.644
33.408,31.612
33.39,31.58
33.367,31.549
33.341,31.52
33.314,31.494
33.285,31.47
33.257,31.449
33.229,31.431
33.199,31.417
33.167,31.406
33.133,31.398
33.098,31.392
33.061,31.387
33.024,31.383
32.987,31.378
32.951,31.373
32.917,31.365
32.886,31.356
32.858,31.343
32.833,31.328
32.812,31.312
32.795,31.297
32.784,31.283
32.779,31.271
32.783,31.263
32.8,31.26
32.831,31.264
32.88,31.277
32.948,31.303
33.038,31.345
33.151,31.409
33.289,31.5
33.451,31.627
33.639,31.798
33.852,32.021
34.09,32.302
34.349,32.648
34.627,33.06
34.921,33.537
35.224,34.076
35.533,34.67
35.843,35.309
36.147,35.981
36.443,36.675
36.724,37.378
36.989,38.077
37.234,38.762
37.458,39.421
37.66,40.045
37.838,40.628
37.994,41.163
38.127,41.646
38.238,42.074
38.326,42.445
38.394,42.758
38.443,43.014
38.474,43.217
38.489,43.369
38.488,43.476
38.474,43.541
38.446,43.568
38.408,43.561
38.359,43.523
38.302,43.456
38.236,43.362
38.163,43.243
38.083,43.1
38,42.931
37.914,42.735
37.826,42.512
37.738,42.269
37.65,42.011
37.562,41.742
37.475,41.469
37.388,41.195
37.302,40.923
37.217,40.656
37.133,40.394
37.053,40.137
36.975,39.886
36.899,39.638
36.824,39.396
36.748,39.157
36.673,38.921
36.597,38.69
36.521,38.462
36.446,38.237
36.372,38.015
36.3,37.796
36.229,37.578
36.16,37.362
36.093,37.145
36.029,36.929
35.966,36.715
35.907,36.503
35.851,36.297
35.801,36.097
35.757,35.907
35.719,35.729
35.688,35.562
35.663,35.41
35.644,35.273
35.632,35.154
35.625,35.053
35.623,34.971
35.626,34.908
35.633,34.865
35.646,34.842
35.662,34.838
35.682,34.853
35.704,34.886
35.727,34.938
35.75,35.006
35.773,35.089
35.794,35.187
35.813,35.297
35.829,35.418
35.842,35.547
35.852,35.683
35.857,35.823
35.859,35.965
35.856,36.106
35.849,36.242
35.837,36.372
35.82,36.491
35.798,36.598
35.772,36.69
35.741,36.764
35.705,36.819
35.664,36.855
35.618,36.872
35.567,36.87
35.511,36.85
35.452,36.813
35.389,36.76
35.323,36.694
35.257,36.617
35.188,36.528
35.119,36.43
35.048,36.322
34.978,36.206
34.908,36.083
34.839,35.954
34.771,35.821
34.704,35.685
34.638,35.548
34.573,35.41
34.509,35.272
34.447,35.133
34.386,34.993
34.327,34.852
34.27,34.71
34.214,34.567
34.161,34.425
34.109,34.284
34.06,34.144
34.013,34.006
33.968,33.869
33.925,33.735
33.884,33.602
33.845,33.472
33.808,33.346
33.773,33.223
33.739,33.105
33.707,32.993
33.676,32.886
33.649,32.786
33.624,32.692
33.603,32.604
33.584,32.522
33.566,32.445
33.549,32.373
33.531,32.307
33.515,32.246
33.5,32.19
33.487,32.137
33.473,32.087
33.46,32.04
33.446,31.996
33.431,31.956
33.416,31.918
33.4,31.883
33.383,31.85
33.367,31.817
33.352,31.785
33.337,31.753
33.325,31.721
33.313,31.69
33.303,31.661
33.292,31.634
33.28,31.61
33.267,31.589
33.253,31.57
33.236,31.552
33.218,31.536
33.197,31.522
33.175,31.509
33.152,31.497
33.128,31.487
33.105,31.478
33.082,31.469
33.06,31.459
33.04,31.449
33.021,31.437
33.004,31.424
32.99,31.411
32.98,31.397
32.976,31.383
32.979,31.369
32.991,31.354
33.015,31.34
33.053,31.328
33.108,31.319
33.181,31.316
33.277,31.321
33.396,31.338
33.542,31.37
33.716,31.422
33.918,31.502
34.148,31.616
34.403,31.772
34.68,31.98
34.975,32.246
35.284,32.577
35.601,32.975
35.922,33.441
36.242,33.974
36.557,34.567
36.863,35.21
37.158,35.893
37.437,36.603
37.699,37.326
37.943,38.048
38.166,38.757
38.367,39.442
38.544,40.095
38.699,40.707
38.832,41.274
38.943,41.791
39.034,42.255
39.104,42.665
39.155,43.02
39.187,43.321
39.201,43.567
39.198,43.76
39.179,43.902
39.146,43.994
39.1,44.04
39.045,44.042
38.981,44.003
38.909,43.927
38.831,43.816
38.748,43.676
38.663,43.51
38.574,43.323
38.484,43.118
38.392,42.898
38.3,42.665
38.21,42.419
38.121,42.164
38.034,41.901
37.948,41.631
37.864,41.356
37.782,41.076
37.702,40.794
37.622,40.512
37.544,40.232
37.467,39.953
37.391,39.678
37.314,39.407
37.238,39.139
37.16,38.874
37.08,38.612
36.997,38.355
36.913,38.103
36.827,37.856
36.743,37.615
36.661,37.382
36.581,37.156
36.503,36.937
36.427,36.726
36.353,36.522
36.282,36.329
36.215,36.146
36.151,35.975
36.092,35.817
36.038,35.675
35.991,35.547
35.952,35.435
35.921,35.338
35.896,35.257
35.879,35.191
35.868,35.14
35.863,35.104
35.865,35.084
35.874,35.082
35.889,35.096
35.911,35.128
35.938,35.177
35.969,35.242
36.002,35.321
36.037,35.413
36.072,35.517
36.107,35.63
36.139,35.75
36.169,35.876
36.195,36.005
36.218,36.134
36.236,36.26
36.248,36.381
36.252,36.494
36.248,36.597
36.234,36.687
36.21,36.764
36.177,36.827
36.136,36.874
36.087,36.907
36.031,36.925
35.97,36.927
35.903,36.913
35.832,36.884
35.759,36.841
35.685,36.783
35.61,36.712
35.535,36.627
35.461,36.531
35.387,36.424
35.315,36.305
35.243,36.176
35.173,36.038
35.104,35.892
35.037,35.74
34.97,35.583
34.905,35.421
34.842,35.257
34.78,35.092
34.72,34.928
34.661,34.766
34.603,34.606
34.545,34.45
34.49,34.299
34.435,34.153
34.383,34.013
34.334,33.878
34.288,33.748
34.245,33.624
34.203,33.505
34.161,33.391
34.119,33.283
34.074,33.179
34.028,33.08
33.981,32.985
33.935,32.894
33.892,32.806
33.851,32.721
33.813,32.637
33.777,32.555
33.743,32.474
33.711,32.396
33.68,32.321
33.651,32.249
33.623,32.181
33.597,32.117
33.572,32.057
33.549,32.002
33.527,31.953
33.506,31.912
33.484,31.878
33.461,31.851
33.438,31.829
33.415,31.812
33.392,31.798
33.371,31.785
33.351,31.771
33.333,31.756
33.315,31.739
33.299,31.72
33.284,31.7
33.27,31.68
33.257,31.659
33.242,31.639
33.227,31.619
33.21,31.598
33.19,31.576
33.167,31.554
33.143,31.532
33.117,31.511
33.09,31.492
33.064,31.476
33.039,31.46
33.017,31.444
32.998,31.428
32.984,31.411
32.976,31.392
32.976,31.372
32.988,31.351
33.013,31.328
33.054,31.304
33.113,31.278
33.194,31.252
33.298,31.227
33.429,31.203
33.587,31.183
33.773,31.168
33.986,31.159
34.227,31.16
34.491,31.173
34.777,31.2
35.079,31.246
35.394,31.319
35.714,31.425
36.035,31.572
36.349,31.768
36.653,32.021
36.94,32.335
37.209,32.714
37.457,33.16
37.683,33.669
37.887,34.237
38.067,34.856
38.224,35.515
38.358,36.203
38.469,36.907
38.557,37.616
38.623,38.318
38.669,39.001
38.695,39.655
38.703,40.273
38.696,40.847
38.675,41.373
38.64,41.846
38.593,42.265
38.535,42.627
38.469,42.933
38.395,43.185
38.314,43.382
38.228,43.529
38.136,43.626
38.04,43.675
37.942,43.68
37.843,43.643
37.744,43.569
37.644,43.46
37.543,43.322
37.444,43.157
37.347,42.971
37.252,42.766
37.16,42.545
37.072,42.31
36.987,42.064
36.905,41.807
36.825,41.542
36.747,41.271
36.669,40.995
36.591,40.715
36.511,40.433
36.431,40.151
36.352,39.871
36.272,39.594
36.194,39.321
36.116,39.053
36.039,38.791
35.964,38.534
35.892,38.282
35.824,38.035
35.76,37.793
35.702,37.555
35.65,37.322
35.605,37.094
35.568,36.87
35.537,36.651
35.514,36.437
35.498,36.231
35.489,36.032
35.485,35.844
35.486,35.665
35.492,35.494
35.501,35.33
35.515,35.176
35.531,35.034
35.55,34.908
35.57,34.801
35.591,34.716
35.611,34.654
35.63,34.619
35.645,34.611
35.656,34.63
35.661,34.675
35.659,34.744
35.653,34.833
35.643,34.94
35.63,35.063
35.614,35.199
35.596,35.344
35.576,35.496
35.555,35.651
35.532,35.805
35.506,35.954
35.477,36.096
35.445,36.227
35.409,36.345
35.37,36.45
35.328,36.54
35.281,36.616
35.23,36.677
35.176,36.725
35.118,36.759
35.057,36.779
34.995,36.785
34.93,36.774
34.865,36.748
34.799,36.707
34.732,36.651
34.665,36.581
34.6,36.5
34.537,36.408
34.478,36.305
34.421,36.192
34.367,36.07
34.314,35.939
34.262,35.799
34.21,35.651
34.158,35.497
34.104,35.339
34.048,35.177
33.992,35.013
33.934,34.85
33.877,34.687
33.818,34.526
33.76,34.366
33.703,34.21
33.648,34.057
33.596,33.908
33.548,33.765
33.504,33.627
33.464,33.493
33.427,33.365
33.393,33.24
33.362,33.119
33.333,33.001
33.306,32.886
33.282,32.775
33.26,32.667
33.239,32.563
33.22,32.464
33.203,32.369
33.188,32.278
33.175,32.192
33.163,32.11
33.152,32.033
33.14,31.959
33.129,31.89
33.119,31.825
33.109,31.765
33.1,31.71
33.091,31.661
33.082,31.617
33.075,31.577
33.069,31.542
33.065,31.511
33.064,31.483
33.065,31.458
33.071,31.437
33.079,31.419
33.091,31.403
33.106,31.388
33.126,31.373
33.15,31.359
33.179,31.345
33.213,31.332
33.253,31.318
33.301,31.304
33.356,31.29
33.422,31.276
33.499,31.261
33.589,31.245
33.695,31.229
33.818,31.212
33.96,31.195
34.121,31.177
34.302,31.158
34.504,31.139
34.725,31.12
34.964,31.101
35.218,31.081
35.484,31.061
35.76,31.04
36.041,31.019
36.325,30.997
36.609,30.976
36.889,30.956
37.162,30.937
37.425,30.92
37.676,30.905
37.91,30.892
38.127,30.883
38.323,30.877
38.5,30.876
38.657,30.884
38.794,30.902
38.911,30.934
39.005,30.984
39.078,31.057
39.128,31.159
39.156,31.296
39.162,31.475
39.147,31.703
39.115,31.988
39.068,32.335
39.008,32.747
38.934,33.224
38.849,33.763
38.752,34.355
38.645,34.992
38.53,35.661
38.408,36.35
38.279,37.046
38.146,37.735
38.01,38.405
37.873,39.046
37.736,39.647
37.603,40.203
37.473,40.707
37.348,41.157
37.228,41.551
37.115,41.888
37.009,42.17
36.912,42.396
36.823,42.57
36.744,42.693
36.672,42.768
36.608,42.797
36.55,42.784
36.498,42.733
36.45,42.647
36.404,42.531
36.362,42.389
36.323,42.225
36.288,42.042
36.254,41.843
36.223,41.632
36.194,41.408
36.167,41.172
36.141,40.927
36.118,40.671
36.095,40.406
36.074,40.133
36.055,39.854
36.037,39.571
36.021,39.285
36.008,38.999
35.998,38.714
35.991,38.431
35.986,38.15
35.982,37.873
35.979,37.599
35.977,37.33
35.974,37.066
35.971,36.806
35.967,36.553
35.962,36.307
35.955,36.067
35.946,35.834
35.933,35.609
35.917,35.394
35.896,35.189
35.869,34.994
35.838,34.812
35.802,34.643
35.762,34.489
35.718,34.351
35.669,34.228
35.616,34.123
35.559,34.035
35.497,33.966
35.432,33.916
35.363,33.885
35.29,33.874
35.214,33.883
35.135,33.911
35.054,33.958
34.972,34.025
34.89,34.11
34.808,34.212
34.726,34.331
34.645,34.465
34.566,34.611
34.49,34.769
34.417,34.934
34.349,35.105
34.287,35.275
34.229,35.444
34.176,35.606
34.128,35.76
34.083,35.901
34.043,36.027
34.007,36.136
33.973,36.228
33.941,36.301
33.909,36.354
33.877,36.389
33.846,36.405
33.815,36.402
33.783,36.379
33.751,36.337
33.717,36.278
33.684,36.203
33.65,36.114
33.617,36.013
33.584,35.901
33.551,35.781
33.518,35.653
33.485,35.518
33.451,35.378
33.418,35.233
33.386,35.084
33.355,34.932
33.325,34.78
33.295,34.627
33.264,34.476
33.232,34.326
33.201,34.18
33.169,34.036
33.138,33.894
33.108,33.754
33.078,33.616
33.049,33.48
33.021,33.346
32.996,33.216
32.974,33.09
32.953,32.969
32.933,32.852
32.915,32.739
32.899,32.629
32.883,32.524
32.868,32.424
32.851,32.329
32.833,32.239
32.813,32.156
32.792,32.078
32.769,32.005
32.747,31.937
32.725,31.873
32.702,31.814
32.678,31.758
32.653,31.707
32.627,31.659
32.601,31.614
32.574,31.572
32.55,31.531
32.528,31.492
32.51,31.455
32.498,31.42
32.493,31.387
32.498,31.358
32.515,31.332
32.55,31.309
32.607,31.29
32.69,31.273
32.801,31.26
32.939,31.25
33.105,31.244
33.297,31.239
33.515,31.236
33.756,31.234
34.018,31.232
34.297,31.231
34.59,31.23
34.893,31.229
35.201,31.227
35.51,31.225
35.815,31.22
36.112,31.211
36.397,31.198
36.666,31.182
36.915,31.164
37.144,31.144
37.349,31.123
37.53,31.102
37.687,31.082
37.82,31.062
37.93,31.045
38.018,31.03
38.083,31.018
38.129,31.008
38.161,31.003
38.189,31.002
38.216,31.005
38.24,31.015
38.258,31.035
38.268,31.066
38.264,31.112
38.243,31.177
38.204,31.266
38.144,31.386
38.064,31.542
37.966,31.741
37.852,31.99
37.724,32.294
37.584,32.657
37.436,33.08
37.284,33.561
37.13,34.096
36.977,34.678
36.827,35.297
36.682,35.941
36.543,36.597
36.413,37.253
36.289,37.897
36.174,38.519
36.066,39.109
35.965,39.661
35.87,40.166
35.781,40.619
35.696,41.015
35.614,41.352
35.535,41.63
35.458,41.85
35.385,42.014
35.316,42.127
35.25,42.192
35.189,42.215
35.133,42.199
35.082,42.149
35.036,42.069
34.994,41.961
34.957,41.829
34.924,41.677
34.896,41.506
34.873,41.319
34.856,41.118
34.844,40.905
34.838,40.681
34.838,40.449
34.845,40.21
34.858,39.963
34.877,39.71
34.902,39.451
34.931,39.186
34.964,38.916
35,38.641
35.037,38.363
35.074,38.082
35.11,37.801
35.145,37.521
35.177,37.241
35.207,36.963
35.233,36.686
35.254,36.411
35.271,36.138
35.283,35.869
35.29,35.605
35.292,35.349
35.289,35.103
35.281,34.87
35.268,34.65
35.249,34.445
35.223,34.255
35.19,34.082
35.151,33.927
35.106,33.792
35.057,33.676
35.003,33.582
34.946,33.508
34.887,33.456
34.827,33.424
34.767,33.412
34.707,33.42
34.646,33.448
34.586,33.495
34.525,33.561
34.464,33.646
34.404,33.748
34.344,33.868
34.285,34.002
34.228,34.15
34.172,34.309
34.118,34.476
34.067,34.65
34.018,34.827
33.97,35.004
33.922,35.178
33.874,35.346
33.825,35.503
33.776,35.647
33.727,35.777
33.679,35.892
33.631,35.991
33.584,36.075
33.538,36.142
33.493,36.193
33.451,36.228
33.411,36.246
33.374,36.246
33.339,36.23
33.305,36.197
33.273,36.149
33.244,36.086
33.217,36.01
33.193,35.922
33.171,35.822
33.151,35.713
33.132,35.595
33.113,35.47
33.094,35.337
33.075,35.2
33.055,35.059
33.035,34.915
33.014,34.769
32.993,34.623
32.972,34.478
32.951,34.333
32.931,34.191
32.911,34.051
32.89,33.916
32.868,33.784
32.845,33.657
32.821,33.535
32.797,33.417
32.772,33.305
32.748,33.196
32.726,33.091
32.705,32.989
32.688,32.888
32.674,32.79
32.665,32.694
32.663,32.602
32.669,32.515
32.686,32.434
32.716,32.358
32.763,32.288
32.829,32.223
32.917,32.163
33.03,32.106
33.171,32.051
33.34,31.999
33.54,31.948
33.775,31.9
34.054,31.855
34.376,31.812
34.735,31.771
35.118,31.732
35.514,31.694
35.912,31.658
36.3,31.624
36.668,31.592
37.009,31.563
37.316,31.536
37.584,31.512
37.813,31.489
38.001,31.467
38.151,31.446
38.265,31.426
38.346,31.408
38.398,31.393
38.424,31.381
38.427,31.372
38.413,31.366
38.383,31.361
38.342,31.356
38.292,31.352
38.236,31.348
38.175,31.344
38.111,31.34
38.045,31.336
37.976,31.332
37.906,31.327
37.834,31.321
37.76,31.316
37.684,31.31
37.604,31.306
37.522,31.304
37.437,31.304
37.351,31.307
37.264,31.314
37.176,31.326
37.086,31.342
36.995,31.367
36.903,31.402
36.811,31.453
36.719,31.522
36.627,31.615
36.536,31.738
36.446,31.898
36.358,32.1
36.271,32.353
36.185,32.66
36.098,33.025
36.01,33.451
35.921,33.936
35.831,34.475
35.741,35.063
35.654,35.69
35.569,36.343
35.487,37.008
35.411,37.671
35.341,38.321
35.279,38.947
35.225,39.539
35.179,40.09
35.14,40.596
35.109,41.051
35.084,41.454
35.067,41.803
35.056,42.097
35.051,42.336
35.051,42.524
35.056,42.661
35.065,42.751
35.078,42.798
35.094,42.804
35.113,42.773
35.134,42.709
35.158,42.616
35.184,42.495
35.212,42.351
35.241,42.186
35.271,42.003
35.3,41.804
35.327,41.592
35.351,41.369
35.371,41.136
35.387,40.894
35.398,40.645
35.404,40.39
35.405,40.13
35.399,39.866
35.387,39.599
35.369,39.329
35.344,39.056
35.313,38.782
35.277,38.507
35.237,38.232
35.194,37.959
35.146,37.687
35.095,37.418
35.042,37.152
34.987,36.889
34.93,36.63
34.87,36.375
34.808,36.126
34.745,35.885
34.681,35.651
34.615,35.428
34.549,35.215
34.483,35.014
34.417,34.826
34.352,34.654
34.289,34.498
34.228,34.361
34.168,34.245
34.11,34.151
34.051,34.081
33.992,34.033
33.933,34.007
33.874,34.004
33.815,34.022
33.758,34.062
33.702,34.123
33.648,34.205
33.597,34.306
33.547,34.426
33.501,34.562
33.458,34.712
33.416,34.871
33.377,35.038
33.34,35.208
33.306,35.377
33.274,35.544
33.245,35.704
33.217,35.855
33.191,35.996
33.166,36.125
33.143,36.242
33.12,36.345
33.097,36.434
33.075,36.51
33.051,36.571
33.028,36.618
33.004,36.651
32.982,36.67
32.961,36.675
32.942,36.666
32.925,36.644
32.909,36.607
32.894,36.556
32.878,36.49
32.863,36.408
32.847,36.312
32.829,36.203
32.81,36.084
32.787,35.956
32.762,35.822
32.738,35.682
32.714,35.538
32.694,35.39
32.677,35.238
32.665,35.084
32.66,34.928
32.662,34.77
32.675,34.612
32.701,34.455
32.742,34.3
32.802,34.148
32.883,33.999
32.989,33.854
33.122,33.713
33.285,33.577
33.479,33.446
33.703,33.322
33.957,33.205
34.238,33.095
34.542,32.993
34.863,32.898
35.198,32.811
35.538,32.731
35.879,32.657
36.215,32.589
36.541,32.526
36.852,32.467
37.145,32.412
37.416,32.359
37.665,32.309
37.889,32.26
38.086,32.212
38.256,32.165
38.398,32.12
38.512,32.077
38.599,32.036
38.66,31.996
38.696,31.959
38.711,31.923
38.705,31.888
38.681,31.855
38.641,31.824
38.587,31.795
38.521,31.768
38.445,31.742
38.362,31.718
38.272,31.694
38.176,31.671
38.075,31.649
37.971,31.628
37.864,31.608
37.756,31.589
37.648,31.572
37.54,31.556
37.434,31.541
37.331,31.527
37.231,31.515
37.133,31.505
37.038,31.496
36.944,31.489
36.852,31.483
36.762,31.477
36.675,31.473
36.588,31.468
36.5,31.462
36.412,31.456
36.322,31.45
36.232,31.443
36.139,31.436
36.046,31.431
35.952,31.429
35.859,31.431
35.767,31.44
35.68,31.459
35.599,31.494
35.525,31.551
35.457,31.638
35.396,31.762
35.341,31.932
35.294,32.155
35.254,32.438
35.222,32.784
35.199,33.197
35.184,33.676
35.177,34.219
35.179,34.817
35.196,35.464
35.232,36.146
35.286,36.852
35.353,37.565
35.429,38.273
35.509,38.961
35.588,39.618
35.661,40.233
35.723,40.798
35.772,41.308
35.807,41.758
35.826,42.147
35.832,42.473
35.824,42.738
35.804,42.946
35.775,43.099
35.738,43.205
35.696,43.266
35.648,43.289
35.597,43.276
35.545,43.233
35.491,43.161
35.438,43.062
35.387,42.94
35.338,42.795
35.292,42.629
35.25,42.445
35.211,42.243
35.173,42.026
35.136,41.795
35.099,41.552
35.069,41.298
35.055,41.036
35.058,40.767
35.074,40.493
35.097,40.215
35.119,39.935
35.131,39.653
35.128,39.372
35.106,39.092
35.06,38.815
34.993,38.541
34.903,38.271
34.796,38.005
34.673,37.743
34.54,37.484
34.401,37.23
34.26,36.98
34.119,36.734
33.984,36.493
33.857,36.258
33.74,36.032
33.635,35.814
33.543,35.609
33.465,35.416
33.4,35.237
33.347,35.073
33.304,34.926
33.27,34.798
33.243,34.689
33.221,34.6
33.203,34.531
33.188,34.483
33.178,34.455
33.17,34.446
33.166,34.456
33.161,34.485
33.156,34.532
33.149,34.598
33.139,34.681
33.126,34.781
33.111,34.895
33.093,35.024
33.074,35.165
33.054,35.317
33.034,35.477
33.013,35.641
32.991,35.804
32.968,35.962
32.944,36.114
32.919,36.255
32.894,36.386
32.869,36.503
32.846,36.606
32.825,36.693
32.808,36.764
32.793,36.819
32.779,36.857
32.765,36.877
32.752,36.88
32.74,36.864
32.729,36.828
32.722,36.774
32.719,36.703
32.723,36.615
32.735,36.514
32.759,36.401
32.796,36.279
32.851,36.148
32.924,36.01
33.02,35.865
33.14,35.715
33.287,35.56
33.464,35.403
33.672,35.245
33.909,35.088
34.175,34.933
34.466,34.782
34.778,34.634
35.107,34.49
35.446,34.348
35.789,34.21
36.132,34.075
36.468,33.945
36.792,33.82
37.099,33.699
37.384,33.583
37.643,33.469
37.873,33.358
38.073,33.25
38.242,33.143
38.38,33.04
38.488,32.94
38.568,32.843
38.622,32.751
38.652,32.663
38.66,32.579
38.65,32.499
38.623,32.422
38.582,32.349
38.528,32.279
38.462,32.214
38.387,32.154
38.304,32.101
38.216,32.053
38.123,32.01
38.025,31.971
37.923,31.937
37.818,31.906
37.711,31.879
37.601,31.855
37.49,31.833
37.378,31.813
37.266,31.794
37.155,31.778
37.045,31.763
36.937,31.749
36.831,31.736
36.727,31.725
36.625,31.716
36.524,31.71
36.425,31.705
36.327,31.701
36.228,31.698
36.127,31.695
36.027,31.689
35.929,31.683
35.834,31.673
35.743,31.662
35.657,31.647
35.574,31.63
35.496,31.611
35.424,31.59
35.359,31.568
35.301,31.546
35.251,31.523
35.209,31.5
35.175,31.477
35.149,31.455
35.132,31.435
35.121,31.417
35.117,31.404
35.119,31.395
35.125,31.394
35.137,31.402
35.155,31.424
35.177,31.462
35.203,31.521
35.232,31.608
35.265,31.729
35.3,31.89
35.337,32.099
35.374,32.362
35.411,32.684
35.449,33.067
35.486,33.513
35.522,34.019
35.556,34.579
35.585,35.184
35.61,35.822
35.627,36.483
35.638,37.153
35.641,37.821
35.637,38.477
35.625,39.109
35.605,39.711
35.578,40.273
35.544,40.792
35.505,41.264
35.459,41.684
35.408,42.051
35.351,42.365
35.291,42.627
35.228,42.836
35.162,42.995
35.094,43.106
35.027,43.171
34.96,43.192
34.893,43.171
34.826,43.111
34.76,43.016
34.695,42.89
34.631,42.736
34.568,42.559
34.507,42.361
34.447,42.146
34.387,41.916
34.328,41.676
34.268,41.425
34.208,41.167
34.149,40.901
34.09,40.63
34.032,40.353
33.975,40.071
33.919,39.788
33.864,39.504
33.81,39.221
33.756,38.943
33.704,38.669
33.651,38.401
33.599,38.138
33.549,37.879
33.501,37.625
33.457,37.374
33.415,37.126
33.376,36.882
33.339,36.642
33.304,36.406
33.27,36.174
33.238,35.948
33.209,35.728
33.181,35.517
33.158,35.314
33.137,35.123
33.121,34.944
33.108,34.78
33.097,34.634
33.087,34.505
33.076,34.398
33.062,34.312
33.046,34.249
33.028,34.209
33.009,34.192
32.988,34.198
32.965,34.225
32.94,34.272
32.915,34.338
32.888,34.423
32.861,34.524
32.834,34.64
32.808,34.77
32.785,34.913
32.763,35.067
32.744,35.229
32.729,35.396
32.72,35.564
32.719,35.73
32.725,35.89
32.74,36.04
32.766,36.178
32.804,36.301
32.858,36.408
32.932,36.496
33.028,36.564
33.15,36.613
33.299,36.642
33.479,36.652
33.689,36.643
33.929,36.618
34.197,36.576
34.488,36.521
34.8,36.453
35.126,36.373
35.462,36.284
35.802,36.186
36.138,36.08
36.467,35.967
36.781,35.849
37.076,35.725
37.35,35.598
37.598,35.467
37.819,35.333
38.012,35.196
38.174,35.057
38.308,34.916
38.413,34.774
38.49,34.631
38.543,34.488
38.573,34.346
38.583,34.204
38.574,34.064
38.549,33.926
38.509,33.789
38.456,33.655
38.392,33.523
38.32,33.394
38.239,33.269
38.153,33.149
38.061,33.034
37.965,32.925
37.868,32.82
37.768,32.72
37.667,32.626
37.565,32.538
37.462,32.455
37.361,32.378
37.26,32.307
37.16,32.241
37.062,32.181
36.964,32.126
36.866,32.077
36.768,32.032
36.668,31.99
36.568,31.95
36.467,31.914
36.366,31.88
36.266,31.85
36.168,31.822
36.072,31.796
35.978,31.771
35.886,31.748
35.798,31.724
35.713,31.702
35.633,31.681
35.557,31.661
35.484,31.64
35.418,31.61
35.358,31.569
35.306,31.519
35.262,31.463
35.226,31.407
35.199,31.353
35.18,31.307
35.17,31.271
35.168,31.247
35.172,31.235
35.184,31.234
35.2,31.242
35.221,31.257
35.248,31.279
35.279,31.305
35.313,31.333
35.35,31.363
35.386,31.391
35.423,31.417
35.457,31.439
35.49,31.458
35.521,31.472
35.549,31.482
35.575,31.489
35.597,31.494
35.615,31.497
35.631,31.498
35.641,31.498
35.646,31.499
35.646,31.505
35.64,31.517
35.63,31.542
35.616,31.585
35.598,31.652
35.577,31.748
35.551,31.882
35.52,32.061
35.483,32.291
35.441,32.577
35.393,32.922
35.339,33.329
35.281,33.796
35.22,34.319
35.156,34.893
35.092,35.507
35.026,36.151
34.959,36.813
34.892,37.478
34.824,38.134
34.756,38.769
34.689,39.372
34.623,39.935
34.558,40.45
34.495,40.913
34.432,41.32
34.37,41.67
34.31,41.962
34.25,42.199
34.193,42.382
34.138,42.515
34.086,42.601
34.036,42.646
33.989,42.652
33.945,42.622
33.903,42.562
33.862,42.473
33.823,42.359
33.783,42.223
33.744,42.066
33.706,41.892
33.668,41.702
33.632,41.498
33.596,41.283
33.562,41.057
33.529,40.821
33.497,40.578
33.466,40.329
33.436,40.073
33.406,39.814
33.378,39.551
33.35,39.285
33.324,39.018
33.298,38.752
33.273,38.486
33.251,38.221
33.23,37.959
33.21,37.699
33.192,37.443
33.174,37.188
33.158,36.937
33.144,36.688
33.131,36.442
33.119,36.199
33.107,35.962
33.095,35.733
33.081,35.513
33.065,35.305
33.047,35.111
33.028,34.931
33.01,34.767
32.991,34.62
32.974,34.493
32.958,34.385
32.946,34.301
32.939,34.239
32.937,34.202
32.944,34.188
32.961,34.197
32.991,34.228
33.04,34.28
33.11,34.352
33.206,34.442
33.329,34.553
33.482,34.687
33.665,34.846
33.878,35.028
34.12,35.227
34.39,35.438
34.683,35.652
34.995,35.864
35.322,36.067
35.657,36.256
35.995,36.428
36.329,36.58
36.651,36.71
36.957,36.819
37.242,36.907
37.505,36.973
37.742,37.019
37.953,37.043
38.138,37.048
38.297,37.034
38.43,37.002
38.538,36.955
38.623,36.894
38.684,36.822
38.725,36.742
38.747,36.653
38.753,36.558
38.743,36.456
38.72,36.349
38.685,36.236
38.638,36.116
38.58,35.991
38.511,35.859
38.434,35.723
38.349,35.583
38.258,35.439
38.162,35.292
38.062,35.143
37.96,34.992
37.854,34.843
37.747,34.695
37.639,34.551
37.534,34.41
37.436,34.274
37.344,34.142
37.259,34.014
37.179,33.892
37.1,33.774
37.021,33.661
36.939,33.554
36.854,33.452
36.764,33.356
36.67,33.264
36.571,33.177
36.467,33.094
36.36,33.015
36.25,32.938
36.14,32.864
36.031,32.792
35.927,32.722
35.829,32.655
35.739,32.589
35.658,32.527
35.588,32.466
35.529,32.409
35.481,32.356
35.443,32.307
35.415,32.262
35.397,32.222
35.389,32.187
35.392,32.157
35.41,32.132
35.445,32.112
35.494,32.095
35.553,32.081
35.618,32.069
35.682,32.058
35.743,32.048
35.798,32.038
35.844,32.027
35.882,32.014
35.91,32
35.928,31.983
35.937,31.964
35.935,31.943
35.925,31.92
35.906,31.896
35.882,31.871
35.855,31.846
35.827,31.823
35.799,31.802
35.772,31.782
35.748,31.763
35.725,31.746
35.703,31.732
35.68,31.72
35.656,31.71
35.63,31.703
35.603,31.698
35.573,31.694
35.542,31.691
35.507,31.689
35.468,31.688
35.422,31.69
35.37,31.697
35.311,31.712
35.248,31.738
35.18,31.779
35.11,31.838
35.038,31.922
34.965,32.036
34.893,32.187
34.824,32.383
34.758,32.631
34.695,32.937
34.635,33.305
34.576,33.736
34.52,34.227
34.467,34.771
34.414,35.362
34.364,35.987
34.315,36.635
34.267,37.293
34.22,37.949
34.172,38.591
34.124,39.21
34.076,39.796
34.028,40.342
33.981,40.842
33.935,41.293
33.891,41.692
33.849,42.038
33.809,42.329
33.773,42.567
33.74,42.753
33.71,42.888
33.682,42.976
33.655,43.019
33.631,43.022
33.608,42.989
33.586,42.923
33.565,42.828
33.544,42.707
33.523,42.564
33.501,42.401
33.478,42.22
33.455,42.024
33.433,41.815
33.411,41.595
33.389,41.365
33.368,41.127
33.347,40.882
33.326,40.634
33.304,40.383
33.283,40.129
33.262,39.874
33.241,39.616
33.221,39.356
33.202,39.094
33.185,38.83
33.169,38.565
33.155,38.3
33.141,38.036
33.127,37.774
33.114,37.516
33.102,37.26
33.092,37.008
33.086,36.76
33.087,36.518
33.097,36.281
33.122,36.052
33.164,35.832
33.227,35.622
33.315,35.424
33.428,35.24
33.569,35.073
33.739,34.923
33.939,34.792
34.168,34.682
34.426,34.592
34.707,34.526
35.007,34.482
35.321,34.463
35.643,34.467
35.968,34.496
36.29,34.547
36.604,34.62
36.908,34.715
37.196,34.828
37.467,34.959
37.715,35.105
37.938,35.263
38.135,35.428
38.304,35.599
38.446,35.771
38.562,35.942
38.651,36.11
38.716,36.271
38.756,36.423
38.775,36.564
38.776,36.691
38.76,36.803
38.732,36.897
38.693,36.973
38.645,37.03
38.591,37.066
38.532,37.082
38.468,37.079
38.4,37.059
38.326,37.023
38.249,36.974
38.168,36.912
38.083,36.84
37.994,36.757
37.902,36.663
37.807,36.56
37.709,36.448
37.609,36.329
37.508,36.202
37.407,36.071
37.305,35.936
37.204,35.797
37.105,35.657
37.008,35.515
36.912,35.37
36.819,35.223
36.726,35.076
36.633,34.938
36.536,34.817
36.434,34.715
36.33,34.63
36.224,34.555
36.118,34.486
36.016,34.417
35.918,34.341
35.827,34.256
35.745,34.158
35.672,34.047
35.611,33.922
35.562,33.787
35.526,33.643
35.502,33.493
35.49,33.341
35.487,33.189
35.492,33.041
35.504,32.9
35.521,32.769
35.543,32.65
35.569,32.546
35.599,32.456
35.632,32.38
35.668,32.319
35.704,32.269
35.739,32.23
35.774,32.199
35.807,32.176
35.839,32.158
35.869,32.145
35.9,32.134
35.931,32.125
35.962,32.115
35.991,32.105
36.015,32.094
36.032,32.082
36.041,32.069
36.043,32.055
36.036,32.04
36.023,32.024
36.002,32.006
35.974,31.987
35.94,31.968
35.898,31.95
35.852,31.933
35.8,31.917
35.743,31.903
35.682,31.891
35.617,31.88
35.55,31.871
35.484,31.862
35.418,31.854
35.353,31.846
35.288,31.838
35.223,31.829
35.158,31.818
35.093,31.807
35.028,31.793
34.963,31.777
34.899,31.759
34.836,31.74
34.776,31.721
34.719,31.702
34.664,31.687
34.612,31.677
34.561,31.675
34.511,31.683
34.461,31.705
34.412,31.745
34.365,31.809
34.318,31.903
34.271,32.033
34.225,32.207
34.179,32.428
34.134,32.704
34.09,33.038
34.048,33.433
34.008,33.887
33.97,34.397
33.934,34.956
33.899,35.556
33.864,36.186
33.83,36.834
33.796,37.489
33.762,38.141
33.728,38.779
33.695,39.393
33.664,39.975
33.635,40.517
33.607,41.013
33.581,41.458
33.557,41.85
33.536,42.188
33.518,42.469
33.503,42.696
33.493,42.868
33.485,42.989
33.478,43.062
33.471,43.09
33.462,43.077
33.45,43.028
33.435,42.946
33.415,42.837
33.389,42.703
33.359,42.548
33.326,42.375
33.291,42.187
33.255,41.986
33.221,41.774
33.19,41.551
33.163,41.318
33.142,41.075
33.127,40.826
33.118,40.573
33.118,40.319
33.129,40.065
33.153,39.814
33.195,39.564
33.256,39.317
33.34,39.069
33.448,38.821
33.582,38.571
33.744,38.317
33.932,38.06
34.147,37.799
34.387,37.536
34.651,37.272
34.935,37.01
35.236,36.751
35.55,36.499
35.87,36.256
36.191,36.024
36.507,35.804
36.814,35.599
37.107,35.41
37.383,35.236
37.638,35.08
37.871,34.942
38.081,34.824
38.267,34.727
38.427,34.65
38.56,34.593
38.667,34.557
38.749,34.541
38.807,34.545
38.844,34.569
38.862,34.614
38.863,34.678
38.848,34.761
38.82,34.862
38.78,34.979
38.729,35.111
38.668,35.256
38.599,35.412
38.523,35.575
38.44,35.743
38.354,35.91
38.263,36.074
38.169,36.23
38.072,36.375
37.973,36.507
37.872,36.624
37.769,36.726
37.666,36.811
37.564,36.879
37.462,36.931
37.362,36.967
37.263,36.985
37.165,36.988
37.068,36.974
36.972,36.944
36.876,36.898
36.78,36.836
36.685,36.76
36.59,36.67
36.496,36.567
36.404,36.451
36.315,36.326
36.228,36.192
36.145,36.051
36.066,35.907
35.99,35.76
35.919,35.611
35.854,35.462
35.795,35.312
35.743,35.162
35.698,35.013
35.661,34.864
35.634,34.717
35.616,34.571
35.606,34.426
35.604,34.284
35.609,34.146
35.62,34.012
35.638,33.881
35.66,33.753
35.685,33.628
35.714,33.507
35.745,33.391
35.776,33.28
35.808,33.175
35.839,33.077
35.87,32.985
35.899,32.899
35.926,32.817
35.951,32.741
35.972,32.67
35.989,32.603
36.001,32.54
36.008,32.482
36.011,32.428
36.008,32.377
36.001,32.329
35.99,32.282
35.973,32.237
35.949,32.194
35.92,32.153
35.885,32.114
35.845,32.079
35.8,32.046
35.752,32.016
35.702,31.988
35.649,31.962
35.596,31.936
35.54,31.912
35.482,31.888
35.42,31.863
35.356,31.837
35.291,31.81
35.226,31.783
35.162,31.756
35.099,31.73
35.038,31.705
34.978,31.683
34.919,31.666
34.86,31.653
34.801,31.644
34.742,31.638
34.681,31.633
34.62,31.63
34.559,31.627
34.5,31.623
34.442,31.619
34.387,31.614
34.334,31.608
34.282,31.6
34.232,31.59
34.185,31.578
34.14,31.563
34.098,31.547
34.06,31.531
34.025,31.516
33.993,31.504
33.964,31.497
33.937,31.498
33.911,31.51
33.885,31.536
33.859,31.581
33.831,31.651
33.803,31.75
33.774,31.886
33.747,32.065
33.721,32.29
33.697,32.569
33.675,32.903
33.654,33.295
33.634,33.745
33.615,34.248
33.597,34.797
33.579,35.386
33.561,36.003
33.543,36.637
33.524,37.277
33.505,37.913
33.485,38.533
33.463,39.127
33.44,39.686
33.417,40.203
33.394,40.672
33.37,41.089
33.348,41.451
33.326,41.756
33.305,42.005
33.288,42.2
33.274,42.343
33.263,42.437
33.258,42.487
33.258,42.495
33.266,42.465
33.285,42.402
33.315,42.307
33.36,42.186
33.423,42.042
33.505,41.878
33.61,41.696
33.741,41.499
33.898,41.29
34.083,41.068
34.293,40.836
34.529,40.595
34.785,40.346
35.06,40.091
35.349,39.833
35.646,39.572
35.947,39.31
36.247,39.047
36.543,38.782
36.829,38.517
37.105,38.251
37.365,37.985
37.609,37.719
37.832,37.455
38.033,37.194
38.209,36.937
38.359,36.684
38.482,36.438
38.58,36.197
38.654,35.964
38.705,35.739
38.735,35.525
38.745,35.323
38.735,35.135
38.708,34.965
38.666,34.814
38.613,34.682
38.551,34.573
38.481,34.485
38.406,34.42
38.326,34.379
38.242,34.36
38.155,34.364
38.065,34.392
37.972,34.442
37.879,34.515
37.787,34.611
37.696,34.731
37.605,34.873
37.514,35.036
37.425,35.217
37.335,35.416
37.245,35.628
37.156,35.851
37.067,36.082
36.979,36.316
36.892,36.55
36.806,36.78
36.72,37.002
36.635,37.212
36.548,37.408
36.46,37.586
36.371,37.744
36.282,37.88
36.194,37.993
36.109,38.083
36.028,38.15
35.953,38.196
35.883,38.22
35.822,38.224
35.767,38.209
35.72,38.174
35.681,38.12
35.649,38.049
35.626,37.962
35.611,37.86
35.605,37.745
35.606,37.619
35.616,37.484
35.631,37.341
35.652,37.193
35.678,37.042
35.709,36.887
35.743,36.731
35.781,36.572
35.82,36.411
35.86,36.249
35.899,36.086
35.939,35.922
35.976,35.759
36.01,35.596
36.041,35.435
36.068,35.276
36.09,35.121
36.106,34.969
36.114,34.822
36.114,34.679
36.108,34.541
36.093,34.408
36.072,34.279
36.044,34.156
36.012,34.039
35.976,33.928
35.935,33.824
35.892,33.726
35.846,33.634
35.796,33.549
35.744,33.47
35.689,33.398
35.632,33.332
35.573,33.272
35.512,33.218
35.45,33.169
35.388,33.125
35.325,33.086
35.262,33.05
35.198,33.019
35.133,32.992
35.067,32.968
35.001,32.948
34.937,32.93
34.876,32.915
34.819,32.901
34.763,32.887
34.709,32.874
34.657,32.861
34.606,32.847
34.557,32.831
34.508,32.813
34.46,32.793
34.413,32.77
34.369,32.745
34.327,32.719
34.288,32.693
34.251,32.666
34.215,32.64
34.181,32.616
34.146,32.593
34.112,32.574
34.078,32.556
34.045,32.54
34.015,32.525
33.986,32.51
33.959,32.495
33.935,32.48
33.914,32.464
33.895,32.45
33.878,32.437
33.864,32.427
33.851,32.421
33.839,32.422
33.829,32.432
33.82,32.457
33.811,32.502
33.803,32.572
33.794,32.676
33.782,32.819
33.768,33.006
33.749,33.243
33.726,33.533
33.701,33.876
33.673,34.272
33.644,34.717
33.614,35.206
33.585,35.729
33.556,36.277
33.529,36.841
33.503,37.411
33.478,37.979
33.456,38.535
33.437,39.071
33.425,39.581
33.421,40.056
33.429,40.493
33.449,40.888
33.485,41.237
33.539,41.54
33.613,41.795
33.711,42.002
33.835,42.162
33.988,42.277
34.169,42.35
34.375,42.385
34.603,42.384
34.851,42.351
35.114,42.288
35.389,42.197
35.673,42.079
35.961,41.936
36.249,41.771
36.534,41.584
36.812,41.379
37.081,41.158
37.335,40.923
37.574,40.677
37.796,40.422
37.998,40.16
38.179,39.892
38.341,39.62
38.482,39.345
38.603,39.069
38.705,38.793
38.788,38.518
38.851,38.246
38.897,37.978
38.924,37.715
38.934,37.456
38.929,37.202
38.91,36.952
38.876,36.707
38.829,36.465
38.769,36.227
38.697,35.994
38.615,35.767
38.526,35.547
38.432,35.336
38.334,35.134
38.234,34.944
38.134,34.766
38.033,34.603
37.932,34.456
37.832,34.326
37.733,34.215
37.636,34.124
37.543,34.055
37.454,34.006
37.369,33.98
37.288,33.977
37.207,33.996
37.127,34.036
37.046,34.098
36.965,34.179
36.883,34.278
36.8,34.394
36.716,34.525
36.632,34.668
36.549,34.822
36.469,34.983
36.392,35.15
36.318,35.32
36.249,35.489
36.185,35.656
36.127,35.817
36.076,35.968
36.032,36.107
35.995,36.23
35.964,36.337
35.94,36.427
35.921,36.498
35.908,36.551
35.899,36.587
35.893,36.604
35.891,36.605
35.895,36.589
35.903,36.558
35.917,36.512
35.936,36.453
35.958,36.382
35.983,36.301
36.01,36.21
36.039,36.109
36.068,36
36.096,35.882
36.123,35.755
36.147,35.62
36.167,35.477
36.182,35.327
36.193,35.172
36.199,35.014
36.2,34.857
36.197,34.701
36.19,34.55
36.177,34.402
36.158,34.259
36.133,34.121
36.102,33.988
36.068,33.859
36.03,33.736
35.989,33.618
35.944,33.506
35.897,33.4
35.846,33.3
35.79,33.203
35.73,33.109
35.664,33.017
35.593,32.926
35.519,32.836
35.443,32.747
35.366,32.66
35.289,32.576
35.213,32.493
35.139,32.413
35.068,32.334
34.998,32.259
34.931,32.188
34.866,32.122
34.804,32.06
34.744,32.006
34.687,31.959
34.633,31.918
34.583,31.885
34.537,31.856
34.493,31.832
34.451,31.812
34.412,31.796
34.375,31.783
34.341,31.772
34.308,31.762
34.278,31.752
34.25,31.742
34.224,31.731
34.2,31.719
34.179,31.705
34.159,31.69
34.139,31.673
34.117,31.654
34.093,31.633
34.067,31.61
34.04,31.587
34.012,31.564
33.983,31.541
33.953,31.518
33.923,31.496
33.893,31.476
33.863,31.458
33.834,31.443
33.804,31.429
33.775,31.418
33.747,31.412
33.722,31.413
33.7,31.42
33.68,31.438
33.662,31.468
33.643,31.517
33.623,31.589
33.603,31.691
33.584,31.828
33.565,32.008
33.547,32.238
33.529,32.523
33.512,32.868
33.495,33.276
33.481,33.746
33.469,34.274
33.462,34.854
33.461,35.476
33.468,36.129
33.487,36.802
33.52,37.482
33.569,38.156
33.638,38.814
33.73,39.445
33.846,40.041
33.989,40.594
34.158,41.099
34.353,41.55
34.573,41.947
34.816,42.288
35.079,42.573
35.358,42.803
35.648,42.982
35.944,43.111
36.24,43.193
36.534,43.233
36.819,43.231
37.094,43.193
37.354,43.12
37.598,43.015
37.825,42.882
38.034,42.725
38.224,42.548
38.395,42.354
38.546,42.146
38.677,41.927
38.789,41.699
38.882,41.463
38.956,41.22
39.01,40.97
39.045,40.716
39.06,40.455
39.058,40.19
39.039,39.922
39.005,39.652
38.957,39.382
38.898,39.114
38.829,38.85
38.752,38.591
38.666,38.339
38.573,38.093
38.475,37.854
38.373,37.619
38.268,37.39
38.164,37.164
38.061,36.943
37.961,36.727
37.863,36.515
37.768,36.31
37.676,36.112
37.587,35.923
37.501,35.745
37.417,35.578
37.336,35.423
37.257,35.282
37.181,35.158
37.105,35.053
37.029,34.97
36.953,34.909
36.875,34.872
36.797,34.857
36.719,34.862
36.643,34.888
36.568,34.93
36.495,34.989
36.427,35.062
36.364,35.15
36.306,35.251
36.253,35.363
36.205,35.486
36.162,35.618
36.124,35.756
36.092,35.897
36.067,36.041
36.049,36.184
36.038,36.323
36.034,36.456
36.038,36.58
36.049,36.693
36.065,36.795
36.085,36.883
36.108,36.959
36.133,37.019
36.159,37.064
36.183,37.092
36.207,37.103
36.228,37.098
36.246,37.076
36.261,37.039
36.273,36.986
36.28,36.919
36.284,36.839
36.284,36.748
36.279,36.646
36.269,36.534
36.257,36.413
36.242,36.285
36.224,36.15
36.203,36.011
36.177,35.867
36.146,35.722
36.111,35.574
36.07,35.426
36.024,35.277
35.974,35.127
35.921,34.978
35.864,34.831
35.804,34.686
35.74,34.544
35.673,34.404
35.602,34.27
35.528,34.14
35.452,34.015
35.376,33.894
35.299,33.779
35.225,33.67
35.154,33.565
35.085,33.468
35.02,33.38
34.957,33.302
34.897,33.233
34.839,33.171
34.783,33.113
34.73,33.059
34.678,33.007
34.629,32.953
34.583,32.899
34.539,32.841
34.496,32.782
34.456,32.72
34.418,32.657
34.38,32.593
34.344,32.531
34.309,32.47
34.276,32.41
34.244,32.353
34.215,32.299
34.187,32.249
34.162,32.204
34.139,32.167
34.118,32.136
34.098,32.112
34.078,32.095
34.057,32.082
34.034,32.072
34.009,32.065
33.98,32.059
33.949,32.054
33.917,32.05
33.885,32.046
33.855,32.039
33.826,32.03
33.8,32.016
33.776,31.997
33.756,31.973
33.74,31.947
33.725,31.918
33.71,31.887
33.696,31.855
33.681,31.823
33.665,31.791
33.65,31.76
33.634,31.732
33.617,31.709
33.598,31.693
33.578,31.69
33.557,31.703
33.535,31.737
33.516,31.798
33.498,31.892
33.486,32.026
33.481,32.205
33.488,32.434
33.508,32.718
33.546,33.061
33.602,33.463
33.679,33.922
33.779,34.435
33.904,34.993
34.055,35.587
34.233,36.207
34.437,36.842
34.666,37.479
34.916,38.108
35.184,38.719
35.466,39.302
35.758,39.85
36.055,40.358
36.353,40.821
36.647,41.237
36.933,41.605
37.208,41.923
37.47,42.194
37.716,42.417
37.944,42.594
38.153,42.728
38.34,42.819
38.506,42.872
38.648,42.888
38.768,42.871
38.866,42.823
38.942,42.747
38.998,42.645
39.036,42.519
39.056,42.372
39.058,42.206
39.043,42.022
39.015,41.823
38.973,41.612
38.922,41.389
38.861,41.158
38.793,40.92
38.718,40.677
38.637,40.43
38.551,40.181
38.459,39.932
38.363,39.682
38.264,39.434
38.163,39.187
38.059,38.943
37.955,38.702
37.851,38.464
37.749,38.229
37.648,37.997
37.55,37.769
37.455,37.545
37.363,37.324
37.275,37.107
37.19,36.894
37.107,36.685
37.026,36.48
36.947,36.282
36.871,36.092
36.797,35.911
36.724,35.741
36.653,35.583
36.583,35.438
36.514,35.308
36.446,35.196
36.381,35.102
36.318,35.028
36.258,34.974
36.202,34.942
36.153,34.932
36.11,34.943
36.074,34.973
36.044,35.022
36.021,35.088
36.003,35.17
35.99,35.265
35.983,35.372
35.98,35.491
35.982,35.618
35.988,35.753
35.999,35.893
36.013,36.036
36.032,36.178
36.052,36.317
36.074,36.449
36.097,36.57
36.12,36.678
36.144,36.771
36.167,36.848
36.189,36.909
36.207,36.954
36.221,36.983
36.229,36.998
36.231,36.999
36.226,36.986
36.213,36.962
36.194,36.925
36.167,36.877
36.134,36.817
36.096,36.745
36.053,36.663
36.007,36.57
35.956,36.469
35.901,36.359
35.843,36.241
35.782,36.116
35.72,35.984
35.656,35.845
35.591,35.7
35.525,35.55
35.457,35.398
35.388,35.245
35.318,35.092
35.246,34.942
35.174,34.794
35.102,34.65
35.031,34.509
34.961,34.372
34.895,34.238
34.832,34.109
34.771,33.984
34.713,33.864
34.656,33.749
34.601,33.638
34.548,33.532
34.497,33.431
34.447,33.333
34.399,33.24
34.354,33.152
34.312,33.069
34.272,32.991
34.236,32.917
34.202,32.848
34.17,32.783
34.141,32.724
34.113,32.669
34.086,32.619
34.061,32.571
34.036,32.527
34.012,32.484
33.988,32.442
33.965,32.399
33.942,32.357
33.919,32.313
33.897,32.27
33.876,32.227
33.855,32.185
33.836,32.143
33.816,32.103
33.798,32.064
33.779,32.027
33.761,31.992
33.744,31.958
33.726,31.927
33.707,31.897
33.689,31.868
33.67,31.84
33.65,31.813
33.631,31.786
33.611,31.76
33.591,31.734
33.57,31.708
33.548,31.683
33.527,31.658
33.507,31.635
33.487,31.613
33.469,31.594
33.451,31.576
33.433,31.562
33.418,31.551
33.405,31.546
33.395,31.549
33.39,31.563
33.392,31.59
33.405,31.636
33.432,31.706
33.475,31.806
33.538,31.943
33.624,32.124
33.735,32.353
33.871,32.636
34.033,32.973
34.221,33.366
34.434,33.81
34.67,34.302
34.928,34.836
35.204,35.402
35.492,35.992
35.79,36.595
36.091,37.202
36.39,37.803
36.685,38.388
36.971,38.948
37.246,39.476
37.509,39.964
37.756,40.408
37.985,40.803
38.193,41.148
38.38,41.441
38.546,41.683
38.69,41.876
38.812,42.023
38.914,42.126
38.996,42.189
39.06,42.215
39.106,42.207
39.136,42.167
39.148,42.098
39.144,42.003
39.124,41.881
39.089,41.737
39.04,41.571
38.978,41.387
38.903,41.186
38.818,40.971
38.723,40.744
38.62,40.509
38.51,40.265
38.395,40.016
38.278,39.761
38.161,39.502
38.047,39.239
37.936,38.973
37.83,38.705
37.729,38.436
37.632,38.165
37.54,37.895
37.453,37.627
37.37,37.362
37.29,37.099
37.213,36.841
37.136,36.587
37.06,36.337
36.985,36.094
36.91,35.857
36.835,35.628
36.762,35.407
36.692,35.197
36.624,34.999
36.559,34.814
36.497,34.645
36.438,34.493
36.384,34.358
36.334,34.244
36.29,34.15
36.251,34.078
36.219,34.029
36.193,34.001
36.172,33.993
36.156,34.006
36.144,34.04
36.136,34.097
36.133,34.178
36.135,34.28
36.142,34.404
36.154,34.546
36.169,34.706
36.187,34.879
36.208,35.064
36.23,35.256
36.252,35.451
36.273,35.645
36.292,35.835
36.308,36.015
36.322,36.183
36.333,36.336
36.341,36.471
36.345,36.587
36.344,36.682
36.336,36.755
36.321,36.807
36.299,36.838
36.269,36.849
36.234,36.841
36.194,36.816
36.152,36.775
36.107,36.719
36.061,36.649
36.012,36.566
35.961,36.471
35.907,36.365
35.85,36.25
35.791,36.126
35.732,35.993
35.672,35.855
35.612,35.712
35.551,35.565
35.491,35.416
35.432,35.267
35.374,35.117
35.317,34.969
35.26,34.823
35.203,34.678
35.148,34.537
35.094,34.399
35.043,34.264
34.992,34.132
34.943,34.002
34.895,33.876
34.847,33.753
34.8,33.634
34.753,33.52
34.708,33.411
34.663,33.307
34.618,33.208
34.574,33.113
34.531,33.023
34.489,32.936
34.448,32.855
34.408,32.777
34.369,32.705
34.331,32.637
34.293,32.575
34.256,32.517
34.219,32.463
34.184,32.412
34.15,32.365
34.118,32.32
34.087,32.279
34.057,32.24
34.029,32.205
34.002,32.172
33.976,32.142
33.952,32.113
33.929,32.085
33.907,32.059
33.885,32.033
33.864,32.009
33.843,31.987
33.821,31.967
33.799,31.948
33.776,31.93
33.752,31.912
33.728,31.893
33.704,31.873
33.679,31.852
33.652,31.831
33.623,31.81
33.591,31.789
33.558,31.768
33.523,31.746
33.489,31.724
33.456,31.701
33.427,31.677
33.402,31.652
33.382,31.627
33.366,31.602
33.357,31.576
33.355,31.551
33.362,31.528
33.381,31.509
33.414,31.495
33.464,31.491
33.535,31.5
33.629,31.527
33.748,31.577
33.893,31.654
34.063,31.765
34.258,31.913
34.476,32.107
34.717,32.35
34.977,32.646
35.253,32.997
35.542,33.402
35.838,33.86
36.137,34.363
36.435,34.904
36.727,35.473
37.011,36.06
37.282,36.653
37.54,37.241
37.783,37.814
38.009,38.36
38.215,38.874
38.399,39.347
38.56,39.775
38.699,40.154
38.814,40.483
38.906,40.759
38.977,40.985
39.026,41.159
39.055,41.286
39.066,41.368
39.059,41.409
39.034,41.413
38.994,41.383
38.94,41.324
38.874,41.238
38.798,41.131
38.713,41.002
38.623,40.856
38.528,40.692
38.43,40.515
38.331,40.325
38.232,40.124
38.135,39.916
38.038,39.701
37.944,39.479
37.851,39.253
37.76,39.022
37.671,38.787
37.584,38.547
37.497,38.303
37.412,38.055
37.328,37.804
37.245,37.549
37.161,37.293
37.078,37.035
36.994,36.776
36.911,36.516
36.83,36.257
36.749,36
36.671,35.744
36.595,35.494
36.522,35.251
36.452,35.018
36.384,34.797
36.32,34.59
36.26,34.397
36.204,34.221
36.152,34.061
36.104,33.92
36.063,33.798
36.028,33.699
36,33.622
35.978,33.57
35.962,33.542
35.951,33.538
35.945,33.559
35.945,33.604
35.949,33.672
35.96,33.762
35.975,33.873
35.994,34.004
36.016,34.154
36.04,34.319
36.063,34.499
36.086,34.689
36.107,34.885
36.125,35.083
36.141,35.278
36.154,35.465
36.164,35.642
36.17,35.806
36.171,35.957
36.166,36.094
36.155,36.216
36.138,36.323
36.116,36.414
36.089,36.489
36.058,36.546
36.022,36.586
35.982,36.607
35.939,36.611
35.892,36.599
35.842,36.572
35.788,36.531
35.73,36.478
35.668,36.413
35.604,36.339
35.538,36.254
35.472,36.16
35.406,36.057
35.34,35.946
35.277,35.83
35.215,35.709
35.154,35.585
35.094,35.459
35.034,35.332
34.974,35.204
34.913,35.077
34.852,34.95
34.794,34.824
34.738,34.699
34.686,34.576
34.635,34.457
34.584,34.34
34.535,34.228
34.486,34.122
34.438,34.021
34.391,33.925
34.345,33.833
34.3,33.745
34.258,33.658
34.219,33.573
34.182,33.488
34.149,33.403
34.119,33.316
34.09,33.229
34.063,33.143
34.037,33.057
34.013,32.973
33.99,32.891
33.968,32.812
33.947,32.736
33.927,32.666
33.906,32.601
33.886,32.543
33.866,32.492
33.846,32.449
33.826,32.412
33.805,32.382
33.783,32.357
33.76,32.336
33.735,32.319
33.708,32.305
33.68,32.291
33.652,32.279
33.624,32.267
33.596,32.254
33.569,32.239
33.543,32.221
33.519,32.2
33.496,32.177
33.475,32.151
33.454,32.122
33.432,32.089
33.411,32.053
33.388,32.013
33.365,31.972
33.342,31.931
33.32,31.89
33.303,31.852
33.29,31.817
33.284,31.789
33.286,31.767
33.3,31.754
33.326,31.752
33.369,31.762
33.429,31.788
33.511,31.833
33.615,31.904
33.744,32.005
33.899,32.142
34.08,32.32
34.285,32.544
34.512,32.817
34.758,33.142
35.019,33.52
35.293,33.949
35.574,34.427
35.86,34.949
36.145,35.506
36.427,36.091
36.701,36.693
36.965,37.302
37.214,37.906
37.447,38.494
37.665,39.058
37.867,39.588
38.053,40.077
38.221,40.52
38.371,40.912
38.502,41.253
38.614,41.543
38.705,41.78
38.777,41.965
38.83,42.1
38.863,42.189
38.878,42.237
38.875,42.247
38.855,42.223
38.819,42.17
38.768,42.09
38.705,41.986
38.63,41.86
38.547,41.714
38.457,41.549
38.362,41.367
38.264,41.17
38.163,40.961
38.061,40.742
37.959,40.514
37.855,40.279
37.752,40.038
37.648,39.792
37.546,39.539
37.447,39.281
37.352,39.016
37.26,38.746
37.17,38.471
37.081,38.192
36.994,37.91
36.909,37.628
36.827,37.345
36.746,37.064
36.667,36.785
36.59,36.51
36.515,36.241
36.442,35.98
36.37,35.728
36.301,35.488
36.235,35.261
36.172,35.049
36.112,34.854
36.054,34.676
36,34.518
35.951,34.38
35.906,34.264
35.868,34.17
35.836,34.098
35.812,34.05
35.795,34.024
35.785,34.022
35.782,34.041
35.784,34.083
35.793,34.146
35.807,34.228
35.825,34.329
35.847,34.445
35.873,34.575
35.9,34.717
35.929,34.869
35.957,35.028
35.984,35.193
36.008,35.361
36.028,35.531
36.043,35.701
36.053,35.867
36.058,36.026
36.057,36.179
36.05,36.322
36.037,36.453
36.019,36.569
35.995,36.67
35.965,36.752
35.93,36.815
35.888,36.858
35.842,36.879
35.792,36.88
35.738,36.862
35.682,36.831
35.623,36.789
35.562,36.738
35.499,36.678
35.435,36.609
35.369,36.53
35.303,36.441
35.235,36.341
35.166,36.231
35.098,36.11
35.031,35.979
34.967,35.839
34.907,35.692
34.85,35.538
34.796,35.38
34.744,35.218
34.694,35.056
34.645,34.894
34.596,34.736
34.547,34.581
34.498,34.432
34.448,34.287
34.398,34.148
34.347,34.015
34.296,33.886
34.244,33.763
34.192,33.645
34.141,33.533
34.091,33.427
34.043,33.327
33.998,33.233
33.956,33.145
33.917,33.063
33.882,32.985
33.851,32.913
33.824,32.845
33.801,32.783
33.782,32.726
33.763,32.675
33.745,32.63
33.727,32.596
33.708,32.573
33.691,32.561
33.673,32.557
33.658,32.558
33.645,32.56
33.633,32.561
33.623,32.557
33.613,32.547
33.603,32.528
33.591,32.499
33.578,32.46
33.562,32.413
33.543,32.357
33.522,32.295
33.498,32.231
33.472,32.164
33.444,32.099
33.412,32.035
33.379,31.975
33.344,31.919
33.309,31.869
33.273,31.825
33.237,31.788
33.202,31.758
33.167,31.735
33.134,31.718
33.103,31.705
33.075,31.695
33.051,31.686
33.032,31.678
33.021,31.67
33.017,31.662
33.025,31.654
33.045,31.648
33.08,31.647
33.133,31.655
33.205,31.674
33.297,31.71
33.411,31.771
33.549,31.863
33.713,31.993
33.904,32.169
34.12,32.397
34.361,32.683
34.622,33.028
34.901,33.434
35.193,33.899
35.493,34.417
35.797,34.981
36.1,35.582
36.398,36.206
36.688,36.843
36.967,37.48
37.231,38.105
37.48,38.708
37.709,39.281
37.919,39.816
38.108,40.307
38.277,40.749
38.424,41.141
38.552,41.481
38.658,41.77
38.744,42.009
38.809,42.2
38.852,42.346
38.876,42.45
38.88,42.514
38.866,42.54
38.835,42.53
38.789,42.487
38.73,42.413
38.66,42.31
38.579,42.181
38.489,42.028
38.392,41.855
38.29,41.663
38.184,41.455
38.078,41.233
37.973,40.999
37.869,40.754
37.768,40.499
37.669,40.237
37.574,39.967
37.481,39.691
37.391,39.412
37.304,39.129
37.218,38.846
37.135,38.562
37.053,38.28
36.972,38
36.891,37.723
36.81,37.45
36.729,37.181
36.648,36.917
36.567,36.658
36.488,36.405
36.409,36.16
36.332,35.922
36.256,35.695
36.183,35.478
36.113,35.272
36.047,35.077
35.984,34.895
35.925,34.726
35.87,34.57
35.821,34.429
35.779,34.305
35.744,34.2
35.717,34.115
35.699,34.052
35.688,34.012
35.685,33.995
35.691,34.003
35.704,34.033
35.724,34.085
35.75,34.16
35.779,34.255
35.81,34.371
35.842,34.506
35.873,34.658
35.902,34.822
35.929,34.996
35.953,35.176
35.974,35.357
35.993,35.535
36.008,35.707
36.019,35.87
36.026,36.021
36.029,36.157
36.028,36.279
36.022,36.383
36.01,36.469
35.991,36.538
35.965,36.587
35.933,36.617
35.896,36.627
35.855,36.617
35.809,36.589
35.76,36.545
35.707,36.484
35.652,36.411
35.593,36.325
35.531,36.23
35.465,36.125
35.397,36.012
35.327,35.893
35.253,35.769
35.178,35.64
35.1,35.507
35.023,35.369
34.946,35.229
34.871,35.088
34.799,34.945
34.731,34.801
34.667,34.658
34.606,34.517
34.548,34.379
34.492,34.243
34.438,34.112
34.385,33.986
34.333,33.863
34.282,33.744
34.232,33.629
34.185,33.518
34.14,33.411
34.096,33.307
34.055,33.207
34.016,33.109
33.979,33.015
33.945,32.924
33.914,32.837
33.885,32.754
33.858,32.673
33.834,32.594
33.811,32.517
33.791,32.442
33.772,32.369
33.753,32.298
33.735,32.23
33.715,32.164
33.694,32.103
33.673,32.045
33.65,31.991
33.629,31.943
33.608,31.9
33.589,31.861
33.57,31.827
33.552,31.798
33.536,31.774
33.52,31.755
33.505,31.741
33.49,31.729
33.474,31.718
33.458,31.708
33.441,31.697
33.423,31.684
33.406,31.669
33.389,31.651
33.371,31.63
33.351,31.605
33.329,31.578
33.305,31.55
33.278,31.52
33.248,31.49
33.218,31.46
33.186,31.431
33.155,31.404
33.125,31.38
33.097,31.359
33.074,31.342
33.056,31.329
33.045,31.322
33.044,31.322
33.055,31.331
33.082,31.351
33.129,31.387
33.198,31.444
33.292,31.527
33.412,31.641
33.56,31.793
33.736,31.99
33.939,32.236
34.169,32.536
34.422,32.894
34.696,33.31
34.985,33.781
35.286,34.304
35.593,34.87
35.903,35.472
36.211,36.098
36.514,36.735
36.81,37.373
37.094,37.998
37.365,38.601
37.618,39.173
37.851,39.706
38.061,40.195
38.249,40.635
38.413,41.024
38.553,41.362
38.67,41.649
38.765,41.885
38.838,42.072
38.891,42.213
38.924,42.31
38.939,42.367
38.936,42.388
38.917,42.374
38.884,42.33
38.838,42.258
38.781,42.159
38.714,42.035
38.639,41.889
38.556,41.721
38.467,41.536
38.372,41.334
38.274,41.119
38.173,40.893
38.071,40.657
37.968,40.414
37.866,40.163
37.765,39.907
37.664,39.646
37.565,39.38
37.466,39.112
37.369,38.841
37.274,38.569
37.181,38.297
37.091,38.026
37.004,37.758
36.921,37.493
36.842,37.23
36.766,36.972
36.691,36.717
36.617,36.466
36.544,36.221
36.473,35.983
36.402,35.751
36.332,35.527
36.263,35.313
36.195,35.109
36.131,34.917
36.071,34.738
36.016,34.574
35.966,34.427
35.92,34.298
35.878,34.188
35.842,34.1
35.812,34.034
35.788,33.99
35.772,33.968
35.762,33.97
35.758,33.995
35.761,34.041
35.771,34.107
35.786,34.193
35.806,34.299
35.829,34.421
35.854,34.56
35.88,34.712
35.907,34.876
35.933,35.049
35.957,35.227
35.978,35.407
35.996,35.586
36.01,35.761
36.02,35.927
36.024,36.082
36.023,36.222
36.015,36.347
36.001,36.455
35.982,36.544
35.957,36.615
35.926,36.667
35.89,36.7
35.848,36.713
35.802,36.706
35.75,36.681
35.693,36.638
35.633,36.579
35.569,36.506
35.503,36.419
35.436,36.322
35.369,36.217
35.302,36.105
35.236,35.989
35.181,35.87
35.145,35.747
35.13,35.621
35.132,35.491
35.145,35.358
35.159,35.223
35.17,35.086
35.17,34.948
35.155,34.81
35.122,34.672
35.07,34.536
35,34.401
34.913,34.268
34.812,34.137
34.701,34.007
34.584,33.88
34.464,33.754
34.345,33.631
34.232,33.511
34.127,33.396
34.032,33.285
33.949,33.179
33.878,33.078
33.819,32.981
33.769,32.888
33.729,32.8
33.697,32.717
33.671,32.64
33.651,32.569
33.635,32.503
33.624,32.443
33.616,32.388
33.61,32.337
33.605,32.289
33.6,32.242
33.595,32.197
33.587,32.153
33.576,32.11
33.563,32.069
33.548,32.029
33.531,31.991
33.513,31.953
33.494,31.917
33.473,31.88
33.452,31.845
33.43,31.81
33.407,31.776
33.384,31.743
33.36,31.711
33.335,31.679
33.308,31.648
33.28,31.617
33.251,31.587
33.223,31.557
33.196,31.528
33.169,31.501
33.142,31.475
33.115,31.451
33.089,31.429
33.063,31.41
33.04,31.395
33.02,31.389
33.005,31.394
33.003,31.415
33.017,31.46
33.048,31.532
33.097,31.64
33.162,31.791
33.242,31.992
33.337,32.248
33.447,32.563
33.573,32.938
33.717,33.371
33.879,33.857
34.061,34.391
34.262,34.963
34.482,35.561
34.719,36.174
34.971,36.792
35.235,37.403
35.508,37.995
35.788,38.562
36.071,39.096
36.352,39.59
36.629,40.04
36.897,40.445
37.154,40.801
37.396,41.11
37.621,41.371
37.828,41.588
38.016,41.761
38.183,41.893
38.329,41.986
38.452,42.042
38.554,42.065
38.633,42.058
38.691,42.021
38.728,41.959
38.745,41.871
38.745,41.758
38.728,41.621
38.695,41.464
38.648,41.287
38.588,41.095
38.518,40.89
38.439,40.672
38.353,40.446
38.261,40.213
38.164,39.973
38.063,39.73
37.959,39.483
37.854,39.235
37.748,38.986
37.642,38.737
37.537,38.488
37.434,38.238
37.334,37.989
37.237,37.741
37.144,37.496
37.053,37.254
36.965,37.017
36.879,36.787
36.796,36.563
36.714,36.346
36.633,36.136
36.555,35.933
36.479,35.74
36.407,35.555
36.336,35.38
36.267,35.218
36.199,35.07
36.129,34.938
36.06,34.823
35.99,34.728
35.922,34.652
35.856,34.596
35.792,34.56
35.732,34.544
35.676,34.549
35.626,34.575
35.583,34.621
35.547,34.686
35.519,34.768
35.499,34.866
35.488,34.979
35.486,35.104
35.493,35.241
35.507,35.385
35.528,35.535
35.554,35.688
35.584,35.841
35.616,35.991
35.648,36.136
35.678,36.274
35.706,36.402
35.73,36.52
35.752,36.626
35.77,36.717
35.785,36.792
35.795,36.852
35.802,36.895
35.804,36.922
35.802,36.934
35.797,36.932
35.788,36.916
35.775,36.888
35.756,36.848
35.73,36.798
35.699,36.738
35.663,36.669
35.621,36.591
35.573,36.504
35.519,36.411
35.46,36.31
35.397,36.203
35.33,36.091
35.259,35.975
35.185,35.857
35.109,35.736
35.033,35.616
34.957,35.497
34.882,35.38
34.809,35.266
34.736,35.155
34.664,35.046
34.593,34.939
34.522,34.834
34.453,34.729
34.386,34.626
34.323,34.524
34.264,34.424
34.208,34.326
34.155,34.23
34.105,34.137
34.056,34.048
34.009,33.964
33.963,33.885
33.917,33.81
33.873,33.741
33.83,33.678
33.788,33.621
33.748,33.57
33.708,33.525
33.671,33.487
33.636,33.454
33.604,33.425
33.574,33.401
33.546,33.38
33.52,33.363
33.496,33.349
33.474,33.337
33.454,33.327
33.436,33.319
33.419,33.312
33.404,33.306
33.39,33.3
33.377,33.296
33.365,33.291
33.353,33.286
33.339,33.28
33.323,33.269
33.304,33.255
33.285,33.236
33.264,33.212
33.243,33.184
33.223,33.151
33.201,33.116
33.178,33.078
33.154,33.039
33.127,33.001
33.099,32.966
33.069,32.937
33.039,32.918
33.009,32.914
32.979,32.931
32.95,32.974
32.924,33.051
32.901,33.166
32.881,33.327
32.864,33.536
32.85,33.797
32.839,34.11
32.833,34.475
32.83,34.888
32.834,35.346
32.844,35.842
32.863,36.37
32.894,36.923
32.939,37.494
33.003,38.077
33.088,38.665
33.196,39.25
33.329,39.824
33.487,40.38
33.671,40.911
33.882,41.411
34.116,41.869
34.374,42.282
34.652,42.648
34.946,42.966
35.251,43.236
35.562,43.459
35.874,43.636
36.183,43.769
36.484,43.859
36.774,43.91
37.048,43.923
37.304,43.903
37.539,43.851
37.751,43.771
37.939,43.665
38.103,43.535
38.243,43.383
38.358,43.211
38.45,43.019
38.521,42.809
38.57,42.583
38.602,42.345
38.617,42.096
38.617,41.84
38.605,41.578
38.58,41.315
38.543,41.051
38.495,40.79
38.437,40.532
38.369,40.279
38.292,40.031
38.209,39.79
38.12,39.556
38.028,39.327
37.937,39.104
37.858,38.886
37.792,38.672
37.739,38.465
37.694,38.267
37.652,38.078
37.609,37.899
37.559,37.727
37.5,37.561
37.43,37.399
37.346,37.24
37.249,37.085
37.139,36.935
37.019,36.79
36.889,36.654
36.752,36.526
36.612,36.412
36.471,36.313
36.334,36.231
36.201,36.169
36.076,36.126
35.961,36.104
35.856,36.102
35.763,36.118
35.681,36.154
35.612,36.205
35.556,36.272
35.511,36.351
35.476,36.441
35.451,36.537
35.434,36.639
35.425,36.743
35.421,36.847
35.42,36.948
35.422,37.044
35.426,37.134
35.432,37.215
35.442,37.286
35.454,37.347
35.468,37.397
35.485,37.436
35.505,37.463
35.529,37.479
35.555,37.481
35.585,37.47
35.616,37.445
35.646,37.406
35.676,37.355
35.704,37.292
35.729,37.219
35.752,37.136
35.77,37.045
35.783,36.948
35.79,36.844
35.791,36.736
35.785,36.625
35.772,36.512
35.752,36.396
35.724,36.278
35.688,36.158
35.645,36.034
35.596,35.909
35.541,35.782
35.48,35.654
35.414,35.525
35.343,35.396
35.265,35.269
35.184,35.144
35.1,35.021
35.014,34.901
34.929,34.782
34.845,34.666
34.766,34.555
34.691,34.448
34.62,34.348
34.554,34.254
34.492,34.168
34.432,34.087
34.375,34.012
34.321,33.941
34.27,33.873
34.224,33.808
34.181,33.745
34.142,33.684
34.106,33.624
34.071,33.565
34.036,33.507
34.002,33.451
33.966,33.397
33.93,33.344
33.892,33.294
33.854,33.247
33.816,33.204
33.779,33.167
33.743,33.137
33.708,33.114
33.674,33.098
33.642,33.089
33.612,33.085
33.584,33.084
33.557,33.086
33.531,33.088
33.507,33.091
33.486,33.094
33.467,33.095
33.452,33.093
33.438,33.09
33.426,33.082
33.414,33.072
33.403,33.057
33.392,33.041
33.379,33.023
33.366,33.006
33.351,32.993
33.334,32.987
33.316,32.991
33.298,33.011
33.28,33.05
33.262,33.112
33.243,33.204
33.224,33.332
33.204,33.498
33.182,33.708
33.158,33.964
33.133,34.267
33.108,34.616
33.082,35.011
33.058,35.447
33.038,35.92
33.023,36.427
33.014,36.961
33.012,37.514
33.018,38.081
33.033,38.652
33.06,39.222
33.102,39.782
33.161,40.325
33.241,40.845
33.345,41.336
33.474,41.791
33.63,42.205
33.814,42.575
34.025,42.895
34.262,43.164
34.521,43.382
34.797,43.547
35.087,43.661
35.385,43.727
35.689,43.745
35.992,43.721
36.292,43.656
36.585,43.554
36.868,43.419
37.137,43.254
37.388,43.063
37.619,42.852
37.829,42.622
38.015,42.38
38.18,42.127
38.323,41.866
38.445,41.599
38.547,41.328
38.63,41.055
38.693,40.781
38.738,40.507
38.766,40.235
38.778,39.966
38.776,39.701
38.76,39.441
38.732,39.187
38.693,38.939
38.644,38.698
38.584,38.466
38.515,38.242
38.437,38.026
38.352,37.818
38.26,37.616
38.164,37.419
38.065,37.225
37.965,37.034
37.867,36.847
37.77,36.663
37.674,36.485
37.58,36.314
37.487,36.153
37.395,36.002
37.305,35.864
37.216,35.738
37.129,35.627
37.043,35.531
36.959,35.45
36.877,35.386
36.795,35.337
36.713,35.304
36.632,35.288
36.551,35.29
36.469,35.308
36.388,35.343
36.306,35.393
36.225,35.456
36.146,35.53
36.071,35.613
36.001,35.702
35.936,35.798
35.877,35.899
35.824,36.003
35.777,36.108
35.737,36.213
35.703,36.317
35.674,36.417
35.651,36.51
35.635,36.595
35.625,36.669
35.623,36.73
35.627,36.777
35.638,36.808
35.652,36.826
35.671,36.829
35.692,36.821
35.715,36.801
35.74,36.77
35.766,36.729
35.791,36.678
35.815,36.616
35.837,36.544
35.856,36.462
35.873,36.37
35.886,36.27
35.895,36.163
35.9,36.049
35.899,35.93
35.893,35.808
35.883,35.682
35.869,35.553
35.851,35.422
35.827,35.29
35.798,35.157
35.764,35.023
35.726,34.888
35.683,34.754
35.634,34.619
35.581,34.486
35.523,34.354
35.46,34.225
35.395,34.1
35.327,33.981
35.257,33.869
35.183,33.763
35.108,33.665
35.031,33.573
34.953,33.488
34.875,33.408
34.798,33.333
34.723,33.262
34.649,33.194
34.578,33.127
34.51,33.063
34.447,32.999
34.39,32.936
34.339,32.872
34.293,32.808
34.251,32.743
34.211,32.678
34.173,32.613
34.136,32.549
34.099,32.485
34.061,32.424
34.022,32.364
33.981,32.305
33.939,32.248
33.896,32.193
33.852,32.14
33.809,32.09
33.768,32.041
33.728,31.996
33.692,31.953
33.659,31.913
33.631,31.877
33.606,31.845
33.584,31.815
33.565,31.788
33.548,31.76
33.533,31.731
33.519,31.698
33.506,31.659
33.492,31.614
33.478,31.563
33.462,31.504
33.443,31.439
33.423,31.37
33.401,31.298
33.375,31.224
33.346,31.15
33.314,31.077
33.279,31.008
33.241,30.948
33.201,30.899
33.16,30.867
33.119,30.856
33.081,30.871
33.045,30.917
33.014,31
32.986,31.125
32.963,31.299
32.945,31.525
32.93,31.809
32.918,32.152
32.91,32.553
32.905,33.011
32.904,33.519
32.911,34.071
32.927,34.658
32.957,35.268
33.004,35.891
33.071,36.517
33.159,37.135
33.271,37.739
33.409,38.321
33.573,38.875
33.764,39.397
33.981,39.88
34.223,40.321
34.487,40.716
34.77,41.061
35.068,41.356
35.376,41.599
35.692,41.791
36.008,41.934
36.321,42.028
36.627,42.076
36.921,42.081
37.201,42.046
37.466,41.973
37.711,41.864
37.935,41.725
38.138,41.557
38.316,41.366
38.47,41.154
38.6,40.927
38.704,40.687
38.786,40.438
38.847,40.183
38.889,39.924
38.914,39.662
38.921,39.399
38.913,39.135
38.889,38.871
38.853,38.607
38.805,38.345
38.747,38.083
38.68,37.823
38.606,37.565
38.527,37.309
38.444,37.055
38.357,36.802
38.267,36.549
38.173,36.299
38.076,36.052
37.977,35.81
37.876,35.574
37.776,35.345
37.676,35.127
37.577,34.92
37.48,34.727
37.386,34.55
37.295,34.39
37.206,34.251
37.118,34.133
37.031,34.037
36.944,33.961
36.857,33.906
36.771,33.871
36.686,33.858
36.602,33.863
36.518,33.887
36.436,33.929
36.357,33.986
36.279,34.057
36.204,34.142
36.133,34.239
36.066,34.346
36.005,34.462
35.95,34.586
35.902,34.716
35.86,34.85
35.826,34.987
35.798,35.125
35.776,35.262
35.761,35.395
35.753,35.522
35.752,35.64
35.758,35.747
35.769,35.841
35.784,35.922
35.802,35.989
35.823,36.04
35.845,36.075
35.868,36.095
35.891,36.099
35.914,36.088
35.935,36.061
35.953,36.019
35.968,35.963
35.98,35.895
35.989,35.816
35.994,35.728
35.994,35.633
35.99,35.533
35.981,35.43
35.967,35.322
35.949,35.211
35.926,35.097
35.899,34.979
35.867,34.859
35.83,34.736
35.79,34.612
35.745,34.487
35.696,34.362
35.64,34.236
35.578,34.111
35.509,33.985
35.435,33.859
35.359,33.735
35.279,33.612
35.198,33.492
35.118,33.375
35.038,33.264
34.96,33.157
34.887,33.056
34.817,32.96
34.749,32.87
34.682,32.785
34.617,32.706
34.552,32.632
34.49,32.561
34.429,32.495
34.371,32.432
34.315,32.372
34.263,32.315
34.213,32.261
34.167,32.21
34.124,32.161
34.082,32.116
34.041,32.074
34.002,32.035
33.962,32
33.924,31.969
33.887,31.941
33.851,31.915
33.816,31.89
33.782,31.866
33.748,31.844
33.716,31.823
33.686,31.804
33.658,31.787
33.632,31.774
33.609,31.764
33.588,31.755
33.57,31.747
33.556,31.74
33.544,31.733
33.535,31.726
33.527,31.719
33.52,31.711
33.512,31.703
33.502,31.694
33.49,31.685
33.476,31.674
33.458,31.661
33.437,31.646
33.413,31.63
33.386,31.613
33.358,31.594
33.329,31.573
33.298,31.552
33.267,31.53
33.234,31.508
33.2,31.487
33.165,31.466
33.128,31.447
33.09,31.429
33.052,31.415
33.016,31.406
32.983,31.403
32.955,31.407
32.932,31.421
32.915,31.449
32.906,31.496
32.906,31.567
32.916,31.669
32.939,31.806
32.977,31.983
33.033,32.205
33.109,32.476
33.209,32.796
33.334,33.166
33.486,33.583
33.667,34.045
33.875,34.544
34.108,35.072
34.364,35.62
34.64,36.179
34.932,36.74
35.237,37.293
35.548,37.831
35.863,38.347
36.175,38.835
36.481,39.291
36.777,39.711
37.057,40.091
37.319,40.43
37.56,40.724
37.78,40.972
37.98,41.174
38.165,41.33
38.34,41.439
38.503,41.503
38.652,41.524
38.783,41.505
38.894,41.449
38.981,41.361
39.041,41.242
39.075,41.099
39.081,40.932
39.062,40.746
39.019,40.542
38.954,40.322
38.869,40.088
38.769,39.841
38.656,39.583
38.534,39.316
38.406,39.042
38.274,38.763
38.142,38.481
38.012,38.198
37.885,37.915
37.764,37.635
37.649,37.357
37.539,37.082
37.436,36.811
37.339,36.544
37.248,36.28
37.163,36.022
37.081,35.769
37.003,35.524
36.927,35.286
36.853,35.052
36.779,34.818
36.704,34.582
36.627,34.349
36.549,34.121
36.468,33.905
36.385,33.708
36.302,33.537
36.22,33.395
36.141,33.288
36.066,33.218
35.994,33.184
35.928,33.186
35.866,33.22
35.811,33.284
35.762,33.376
35.718,33.491
35.681,33.625
35.651,33.776
35.628,33.939
35.612,34.112
35.604,34.29
35.6,34.47
35.602,34.648
35.607,34.823
35.616,34.991
35.628,35.151
35.643,35.301
35.662,35.439
35.682,35.565
35.705,35.678
35.73,35.778
35.754,35.864
35.778,35.937
35.8,35.995
35.82,36.04
35.838,36.071
35.852,36.088
35.862,36.09
35.867,36.079
35.866,36.055
35.859,36.019
35.846,35.971
35.825,35.911
35.798,35.84
35.763,35.758
35.722,35.668
35.674,35.57
35.622,35.466
35.565,35.357
35.505,35.246
35.443,35.131
35.379,35.014
35.315,34.895
35.251,34.775
35.186,34.653
35.12,34.53
35.053,34.405
34.984,34.28
34.914,34.155
34.844,34.03
34.773,33.907
34.703,33.784
34.635,33.664
34.57,33.547
34.508,33.432
34.449,33.321
34.392,33.214
34.337,33.112
34.282,33.015
34.229,32.922
34.178,32.834
34.129,32.751
34.082,32.672
34.035,32.597
33.99,32.526
33.945,32.46
33.901,32.401
33.858,32.348
33.817,32.301
33.777,32.259
33.74,32.221
33.705,32.185
33.673,32.152
33.644,32.119
33.617,32.086
33.593,32.053
33.571,32.02
33.549,31.986
33.528,31.952
33.505,31.918
33.483,31.885
33.461,31.854
33.438,31.826
33.416,31.8
33.395,31.776
33.374,31.753
33.356,31.733
33.34,31.714
33.325,31.698
33.309,31.685
33.292,31.674
33.273,31.665
33.253,31.658
33.231,31.651
33.208,31.645
33.185,31.638
33.161,31.631
33.136,31.623
33.11,31.614
33.084,31.604
33.057,31.594
33.031,31.581
33.005,31.567
32.978,31.55
32.954,31.53
32.931,31.509
32.912,31.487
32.896,31.466
32.886,31.446
32.883,31.429
32.889,31.413
32.906,31.399
32.937,31.385
32.986,31.373
33.056,31.362
33.151,31.355
33.272,31.351
33.42,31.355
33.597,31.367
33.801,31.393
34.031,31.435
34.287,31.498
34.564,31.588
34.859,31.709
35.167,31.868
35.482,32.071
35.799,32.322
36.114,32.626
36.422,32.984
36.719,33.394
37.002,33.852
37.268,34.35
37.514,34.882
37.739,35.435
37.941,36
38.119,36.567
38.273,37.125
38.401,37.666
38.504,38.182
38.584,38.667
38.642,39.115
38.68,39.524
38.699,39.89
38.702,40.212
38.688,40.487
38.661,40.717
38.621,40.901
38.57,41.041
38.51,41.138
38.441,41.194
38.364,41.212
38.281,41.193
38.192,41.141
38.097,41.059
37.998,40.948
37.896,40.813
37.793,40.653
37.689,40.472
37.586,40.271
37.484,40.052
37.384,39.819
37.286,39.572
37.19,39.314
37.096,39.046
37.002,38.771
36.91,38.49
36.819,38.204
36.729,37.914
36.641,37.622
36.554,37.328
36.467,37.034
36.382,36.74
36.298,36.446
36.216,36.153
36.137,35.862
36.061,35.575
35.988,35.292
35.919,35.016
35.854,34.748
35.794,34.49
35.739,34.243
35.691,34.009
35.648,33.793
35.612,33.595
35.582,33.416
35.558,33.259
35.54,33.123
35.529,33.01
35.522,32.921
35.521,32.855
35.524,32.815
35.531,32.801
35.54,32.811
35.553,32.846
35.567,32.905
35.583,32.984
35.601,33.084
35.62,33.201
35.64,33.335
35.658,33.484
35.675,33.648
35.69,33.824
35.702,34.009
35.712,34.202
35.719,34.397
35.724,34.593
35.727,34.784
35.726,34.967
35.721,35.139
35.709,35.299
35.692,35.444
35.668,35.573
35.639,35.686
35.605,35.781
35.565,35.858
35.522,35.917
35.473,35.957
35.419,35.981
35.361,35.987
35.299,35.977
35.234,35.95
35.166,35.908
35.097,35.852
35.028,35.782
34.959,35.701
34.89,35.609
34.823,35.508
34.757,35.4
34.692,35.284
34.626,35.163
34.561,35.037
34.495,34.907
34.43,34.774
34.365,34.641
34.301,34.509
34.239,34.378
34.18,34.25
34.123,34.126
34.068,34.007
34.015,33.891
33.963,33.779
33.912,33.67
33.86,33.564
33.809,33.461
33.76,33.361
33.713,33.264
33.669,33.17
33.628,33.078
33.59,32.988
33.555,32.9
33.521,32.815
33.489,32.731
33.458,32.648
33.428,32.567
33.398,32.487
33.369,32.41
33.34,32.338
33.315,32.271
33.293,32.211
33.274,32.156
33.257,32.107
33.241,32.062
33.225,32.021
33.208,31.983
33.189,31.946
33.169,31.912
33.148,31.877
33.126,31.843
33.102,31.808
33.078,31.775
33.054,31.742
33.031,31.71
33.009,31.68
32.988,31.651
32.968,31.623
32.947,31.597
32.924,31.573
32.9,31.551
32.876,31.531
32.854,31.515
32.833,31.501
32.814,31.491
32.797,31.483
32.783,31.478
32.77,31.475
32.76,31.474
32.752,31.474
32.749,31.475
32.752,31.476
32.765,31.478
32.79,31.48
32.831,31.481
32.892,31.482
32.976,31.481
33.085,31.479
33.22,31.474
33.382,31.467
33.573,31.459
33.791,31.45
34.036,31.441
34.305,31.432
34.596,31.425
34.903,31.418
35.221,31.413
35.544,31.409
35.868,31.406
36.187,31.405
36.497,31.407
36.794,31.415
37.077,31.431
37.351,31.46
37.617,31.506
37.872,31.575
38.11,31.674
38.325,31.809
38.513,31.986
38.668,32.212
38.787,32.491
38.868,32.827
38.912,33.221
38.919,33.671
38.892,34.173
38.835,34.719
38.753,35.299
38.651,35.903
38.535,36.519
38.408,37.133
38.277,37.735
38.143,38.314
38.011,38.863
37.881,39.373
37.756,39.839
37.636,40.259
37.524,40.628
37.418,40.946
37.32,41.213
37.228,41.43
37.14,41.601
37.055,41.727
36.971,41.812
36.888,41.858
36.805,41.867
36.719,41.843
36.63,41.785
36.537,41.696
36.442,41.578
36.346,41.433
36.247,41.263
36.148,41.069
36.047,40.854
35.945,40.621
35.845,40.372
35.747,40.11
35.655,39.835
35.569,39.552
35.489,39.261
35.416,38.965
35.349,38.663
35.29,38.358
35.24,38.051
35.197,37.743
35.162,37.436
35.135,37.13
35.115,36.828
35.104,36.529
35.101,36.235
35.107,35.946
35.12,35.665
35.14,35.392
35.163,35.128
35.191,34.876
35.222,34.636
35.257,34.41
35.293,34.198
35.331,34.001
35.369,33.821
35.406,33.657
35.442,33.51
35.476,33.382
35.505,33.273
35.528,33.183
35.544,33.114
35.555,33.068
35.56,33.044
35.559,33.043
35.555,33.067
35.548,33.113
35.536,33.184
35.522,33.277
35.504,33.392
35.482,33.528
35.458,33.682
35.43,33.852
35.398,34.035
35.363,34.228
35.325,34.429
35.283,34.634
35.238,34.841
35.188,35.046
35.136,35.245
35.08,35.436
35.022,35.615
34.962,35.777
34.901,35.921
34.839,36.045
34.777,36.148
34.716,36.229
34.658,36.289
34.602,36.328
34.549,36.346
34.498,36.344
34.447,36.324
34.398,36.286
34.347,36.233
34.296,36.165
34.242,36.084
34.186,35.99
34.129,35.885
34.069,35.77
34.008,35.648
33.945,35.519
33.883,35.386
33.822,35.248
33.763,35.108
33.707,34.965
33.654,34.822
33.605,34.678
33.56,34.537
33.518,34.399
33.481,34.264
33.447,34.134
33.417,34.007
33.39,33.884
33.367,33.764
33.346,33.646
33.328,33.529
33.314,33.413
33.301,33.299
33.291,33.188
33.282,33.081
33.272,32.979
33.262,32.88
33.25,32.785
33.238,32.694
33.225,32.607
33.213,32.524
33.201,32.443
33.188,32.364
33.175,32.288
33.159,32.216
33.141,32.149
33.12,32.087
33.097,32.032
33.071,31.983
33.044,31.939
33.015,31.902
32.988,31.87
32.961,31.844
32.938,31.822
32.916,31.805
32.897,31.791
32.879,31.779
32.864,31.768
32.855,31.756
32.853,31.742
32.861,31.727
32.883,31.709
32.92,31.689
32.977,31.669
33.059,31.649
33.167,31.63
33.304,31.613
33.471,31.597
33.666,31.584
33.889,31.572
34.137,31.563
34.407,31.556
34.698,31.551
35.004,31.547
35.319,31.542
35.638,31.538
35.954,31.533
36.262,31.527
36.556,31.519
36.833,31.511
37.09,31.5
37.324,31.488
37.535,31.474
37.721,31.459
37.883,31.446
38.018,31.433
38.129,31.423
38.215,31.415
38.278,31.413
38.318,31.416
38.338,31.426
38.34,31.445
38.326,31.477
38.296,31.524
38.253,31.593
38.199,31.689
38.136,31.817
38.066,31.985
37.99,32.199
37.909,32.463
37.824,32.782
37.735,33.156
37.644,33.585
37.551,34.065
37.456,34.591
37.36,35.156
37.26,35.75
37.159,36.364
37.055,36.986
36.95,37.604
36.844,38.206
36.738,38.784
36.632,39.329
36.526,39.833
36.422,40.291
36.319,40.7
36.219,41.058
36.121,41.365
36.025,41.62
35.93,41.824
35.837,41.979
35.745,42.086
35.655,42.147
35.566,42.165
35.481,42.143
35.399,42.083
35.322,41.989
35.25,41.864
35.182,41.71
35.119,41.532
35.061,41.33
35.009,41.109
34.964,40.869
34.928,40.614
34.902,40.346
34.888,40.066
34.886,39.775
34.895,39.474
34.915,39.166
34.945,38.851
34.984,38.532
35.03,38.212
35.081,37.891
35.136,37.574
35.194,37.262
35.255,36.957
35.316,36.66
35.375,36.373
35.429,36.094
35.478,35.824
35.519,35.561
35.553,35.305
35.578,35.055
35.595,34.811
35.605,34.577
35.61,34.353
35.609,34.141
35.603,33.943
35.592,33.76
35.575,33.595
35.551,33.447
35.522,33.319
35.487,33.211
35.448,33.125
35.405,33.063
35.359,33.023
35.311,33.007
35.26,33.014
35.208,33.044
35.154,33.094
35.098,33.164
35.039,33.252
34.978,33.358
34.915,33.479
34.851,33.614
34.785,33.762
34.719,33.92
34.65,34.087
34.58,34.261
34.508,34.44
34.435,34.622
34.361,34.804
34.288,34.983
34.216,35.157
34.146,35.321
34.078,35.472
34.013,35.609
33.951,35.729
33.891,35.832
33.834,35.916
33.781,35.981
33.731,36.026
33.684,36.053
33.64,36.061
33.599,36.05
33.559,36.022
33.522,35.977
33.488,35.918
33.456,35.844
33.427,35.759
33.4,35.663
33.376,35.557
33.353,35.442
33.333,35.319
33.315,35.19
33.299,35.058
33.284,34.923
33.27,34.785
33.257,34.647
33.244,34.509
33.231,34.372
33.217,34.235
33.201,34.098
33.185,33.962
33.167,33.828
33.148,33.697
33.128,33.568
33.108,33.444
33.086,33.325
33.064,33.21
33.041,33.101
33.017,32.998
32.992,32.901
32.966,32.81
32.941,32.724
32.916,32.643
32.893,32.567
32.871,32.495
32.851,32.426
32.833,32.361
32.819,32.299
32.808,32.24
32.804,32.185
32.806,32.132
32.819,32.082
32.845,32.033
32.889,31.986
32.953,31.94
33.04,31.895
33.152,31.852
33.289,31.812
33.453,31.775
33.643,31.742
33.86,31.713
34.101,31.687
34.364,31.663
34.645,31.641
34.942,31.62
35.25,31.599
35.564,31.58
35.88,31.562
36.193,31.545
36.496,31.529
36.788,31.514
37.066,31.499
37.327,31.484
37.567,31.471
37.782,31.458
37.967,31.447
38.123,31.438
38.248,31.43
38.343,31.425
38.407,31.421
38.443,31.418
38.454,31.416
38.444,31.414
38.415,31.411
38.371,31.409
38.313,31.407
38.245,31.406
38.168,31.406
38.085,31.406
37.997,31.407
37.906,31.407
37.813,31.408
37.719,31.41
37.622,31.415
37.525,31.426
37.427,31.445
37.328,31.478
37.23,31.53
37.131,31.608
37.032,31.718
36.933,31.865
36.833,32.058
36.734,32.3
36.635,32.597
36.542,32.95
36.455,33.361
36.373,33.826
36.295,34.341
36.219,34.898
36.143,35.486
36.064,36.094
35.982,36.71
35.895,37.322
35.804,37.917
35.709,38.484
35.611,39.015
35.512,39.502
35.412,39.939
35.315,40.324
35.222,40.654
35.135,40.931
35.057,41.154
34.989,41.327
34.933,41.454
34.888,41.538
34.857,41.581
34.838,41.587
34.832,41.558
34.839,41.496
34.857,41.405
34.885,41.287
34.922,41.145
34.967,40.981
35.018,40.798
35.075,40.596
35.135,40.379
35.197,40.148
35.261,39.905
35.324,39.652
35.384,39.39
35.44,39.121
35.489,38.845
35.53,38.564
35.562,38.279
35.587,37.992
35.607,37.704
35.622,37.415
35.631,37.129
35.634,36.847
35.632,36.568
35.624,36.294
35.609,36.025
35.589,35.761
35.562,35.503
35.528,35.253
35.488,35.011
35.444,34.778
35.395,34.555
35.344,34.344
35.29,34.145
35.232,33.961
35.17,33.793
35.103,33.643
35.034,33.512
34.962,33.401
34.89,33.308
34.818,33.236
34.749,33.184
34.682,33.153
34.618,33.144
34.555,33.158
34.494,33.194
34.432,33.253
34.371,33.331
34.309,33.43
34.248,33.547
34.189,33.681
34.132,33.83
34.077,33.992
34.024,34.165
33.973,34.347
33.923,34.536
33.874,34.729
33.826,34.924
33.779,35.118
33.733,35.306
33.69,35.486
33.649,35.654
33.611,35.808
33.576,35.945
33.544,36.063
33.514,36.162
33.486,36.24
33.459,36.3
33.433,36.34
33.408,36.362
33.385,36.368
33.363,36.361
33.343,36.348
33.324,36.336
33.306,36.321
33.288,36.303
33.272,36.277
33.255,36.24
33.24,36.189
33.225,36.122
33.21,36.036
33.195,35.933
33.179,35.812
33.161,35.675
33.143,35.523
33.123,35.359
33.104,35.187
33.084,35.01
33.063,34.831
33.044,34.654
33.026,34.483
33.012,34.319
33.001,34.166
32.997,34.024
33,33.892
33.013,33.77
33.039,33.659
33.082,33.556
33.143,33.462
33.226,33.377
33.332,33.299
33.464,33.227
33.623,33.16
33.808,33.097
34.02,33.036
34.259,32.977
34.522,32.919
34.806,32.863
35.105,32.808
35.416,32.754
35.734,32.702
36.052,32.652
36.366,32.603
36.668,32.556
36.955,32.51
37.223,32.467
37.47,32.426
37.692,32.387
37.89,32.351
38.061,32.317
38.206,32.286
38.324,32.259
38.417,32.234
38.484,32.213
38.527,32.195
38.549,32.181
38.554,32.169
38.544,32.159
38.521,32.149
38.487,32.139
38.443,32.128
38.39,32.116
38.329,32.102
38.261,32.085
38.186,32.066
38.105,32.044
38.02,32.02
37.931,31.993
37.839,31.965
37.745,31.937
37.649,31.908
37.551,31.88
37.451,31.855
37.35,31.832
37.247,31.814
37.142,31.801
37.036,31.794
36.929,31.796
36.821,31.811
36.713,31.843
36.604,31.894
36.493,31.969
36.382,32.072
36.268,32.206
36.154,32.378
36.041,32.593
35.931,32.853
35.825,33.163
35.724,33.523
35.629,33.933
35.54,34.39
35.459,34.886
35.384,35.415
35.318,35.966
35.26,36.529
35.212,37.095
35.174,37.651
35.146,38.188
35.128,38.698
35.121,39.173
35.122,39.608
35.133,39.999
35.151,40.344
35.178,40.644
35.21,40.898
35.249,41.109
35.291,41.278
35.338,41.408
35.388,41.501
35.44,41.559
35.493,41.584
35.547,41.577
35.6,41.539
35.651,41.474
35.698,41.38
35.741,41.257
35.779,41.106
35.811,40.932
35.835,40.738
35.852,40.529
35.86,40.309
35.86,40.079
35.853,39.842
35.839,39.6
35.819,39.353
35.793,39.103
35.761,38.848
35.725,38.59
35.685,38.328
35.641,38.062
35.594,37.794
35.544,37.524
35.493,37.252
35.44,36.979
35.384,36.707
35.327,36.438
35.268,36.174
35.207,35.914
35.144,35.661
35.078,35.414
35.008,35.176
34.935,34.947
34.861,34.729
34.786,34.525
34.711,34.335
34.637,34.162
34.564,34.007
34.493,33.87
34.421,33.755
34.351,33.66
34.283,33.589
34.219,33.541
34.158,33.515
34.1,33.512
34.048,33.531
34,33.572
33.957,33.634
33.919,33.717
33.885,33.819
33.853,33.94
33.822,34.078
33.792,34.23
33.764,34.394
33.737,34.567
33.711,34.746
33.685,34.927
33.66,35.109
33.634,35.287
33.607,35.46
33.581,35.623
33.554,35.776
33.528,35.915
33.503,36.041
33.478,36.15
33.453,36.243
33.428,36.319
33.404,36.377
33.381,36.417
33.36,36.439
33.34,36.445
33.32,36.434
33.302,36.408
33.284,36.368
33.265,36.315
33.246,36.25
33.227,36.174
33.208,36.088
33.191,35.994
33.177,35.893
33.167,35.786
33.162,35.674
33.164,35.558
33.175,35.438
33.199,35.316
33.237,35.193
33.293,35.067
33.37,34.939
33.471,34.81
33.598,34.68
33.753,34.55
33.937,34.419
34.148,34.288
34.386,34.16
34.649,34.035
34.933,33.913
35.234,33.795
35.545,33.681
35.864,33.57
36.183,33.464
36.499,33.361
36.808,33.264
37.106,33.174
37.388,33.091
37.652,33.017
37.895,32.951
38.115,32.893
38.311,32.842
38.483,32.795
38.63,32.753
38.754,32.712
38.855,32.672
38.934,32.633
38.992,32.593
39.03,32.553
39.05,32.512
39.053,32.47
39.041,32.428
39.017,32.385
38.982,32.342
38.936,32.299
38.883,32.258
38.822,32.219
38.755,32.184
38.683,32.153
38.604,32.128
38.521,32.106
38.434,32.089
38.345,32.075
38.254,32.064
38.162,32.056
38.069,32.051
37.975,32.049
37.88,32.048
37.784,32.049
37.689,32.051
37.594,32.051
37.5,32.05
37.406,32.044
37.312,32.035
37.221,32.02
37.13,32.002
37.041,31.981
36.952,31.959
36.863,31.939
36.774,31.922
36.686,31.912
36.595,31.91
36.501,31.918
36.402,31.942
36.302,31.986
36.204,32.055
36.11,32.156
36.023,32.297
35.945,32.484
35.876,32.722
35.818,33.016
35.77,33.369
35.734,33.779
35.709,34.246
35.696,34.762
35.693,35.32
35.699,35.909
35.713,36.518
35.733,37.135
35.757,37.75
35.784,38.351
35.814,38.93
35.845,39.479
35.877,39.993
35.911,40.468
35.944,40.898
35.976,41.283
36.005,41.62
36.03,41.909
36.051,42.151
36.067,42.346
36.079,42.496
36.086,42.603
36.09,42.667
36.087,42.692
36.077,42.679
36.059,42.632
36.032,42.554
35.997,42.447
35.957,42.314
35.911,42.157
35.862,41.979
35.811,41.783
35.76,41.57
35.708,41.343
35.657,41.104
35.607,40.856
35.557,40.601
35.508,40.341
35.457,40.079
35.405,39.817
35.35,39.556
35.292,39.296
35.233,39.038
35.171,38.782
35.108,38.53
35.042,38.28
34.975,38.034
34.907,37.792
34.837,37.552
34.767,37.316
34.695,37.083
34.623,36.853
34.551,36.628
34.482,36.407
34.414,36.193
34.351,35.986
34.292,35.789
34.237,35.603
34.186,35.43
34.139,35.271
34.095,35.129
34.055,35.004
34.017,34.897
33.98,34.809
33.943,34.741
33.907,34.693
33.873,34.665
33.84,34.66
33.809,34.677
33.78,34.716
33.753,34.775
33.726,34.853
33.7,34.948
33.675,35.057
33.649,35.179
33.622,35.312
33.593,35.453
33.564,35.6
33.536,35.752
33.509,35.906
33.482,36.061
33.457,36.213
33.431,36.36
33.406,36.498
33.38,36.625
33.354,36.736
33.326,36.832
33.297,36.91
33.267,36.97
33.238,37.013
33.21,37.039
33.187,37.048
33.171,37.041
33.163,37.019
33.167,36.985
33.186,36.937
33.224,36.877
33.281,36.806
33.361,36.724
33.467,36.631
33.601,36.53
33.763,36.42
33.954,36.303
34.175,36.18
34.424,36.052
34.697,35.919
34.991,35.783
35.301,35.643
35.622,35.502
35.95,35.36
36.279,35.219
36.604,35.08
36.921,34.943
37.228,34.81
37.52,34.681
37.795,34.556
38.051,34.436
38.286,34.319
38.498,34.206
38.688,34.096
38.853,33.989
38.996,33.885
39.116,33.782
39.215,33.683
39.295,33.587
39.354,33.495
39.396,33.408
39.42,33.326
39.429,33.249
39.422,33.176
39.401,33.108
39.368,33.045
39.323,32.986
39.267,32.93
39.202,32.879
39.127,32.83
39.044,32.785
38.953,32.742
38.856,32.703
38.755,32.667
38.65,32.634
38.545,32.603
38.439,32.574
38.335,32.546
38.232,32.52
38.131,32.495
38.033,32.471
37.938,32.448
37.846,32.427
37.757,32.408
37.671,32.391
37.589,32.376
37.509,32.361
37.431,32.348
37.355,32.336
37.279,32.325
37.203,32.314
37.126,32.303
37.048,32.291
36.969,32.278
36.888,32.263
36.807,32.247
36.725,32.23
36.646,32.211
36.57,32.192
36.497,32.174
36.43,32.158
36.368,32.145
36.311,32.135
36.261,32.131
36.218,32.133
36.182,32.144
36.152,32.167
36.13,32.207
36.115,32.268
36.106,32.358
36.102,32.482
36.103,32.649
36.107,32.863
36.114,33.13
36.123,33.451
36.135,33.826
36.15,34.251
36.17,34.723
36.192,35.235
36.215,35.778
36.239,36.343
36.261,36.922
36.28,37.505
36.295,38.085
36.304,38.653
36.306,39.204
36.3,39.729
36.287,40.224
36.265,40.682
36.236,41.1
36.199,41.475
36.155,41.805
36.106,42.088
36.052,42.322
35.995,42.508
35.936,42.646
35.875,42.737
35.813,42.783
35.751,42.785
35.688,42.748
35.624,42.674
35.56,42.567
35.496,42.433
35.429,42.273
35.362,42.093
35.292,41.894
35.222,41.68
35.15,41.454
35.078,41.217
35.007,40.971
34.936,40.719
34.867,40.462
34.8,40.201
34.735,39.939
34.672,39.677
34.61,39.417
34.549,39.162
34.49,38.911
34.431,38.666
34.373,38.428
34.316,38.195
34.26,37.969
34.205,37.748
34.153,37.533
34.102,37.323
34.053,37.118
34.007,36.919
33.964,36.726
33.923,36.538
33.885,36.357
33.849,36.184
33.815,36.02
33.781,35.865
33.748,35.721
33.716,35.589
33.683,35.47
33.651,35.363
33.619,35.272
33.586,35.195
33.552,35.135
33.519,35.092
33.486,35.068
33.455,35.062
33.424,35.075
33.395,35.106
33.367,35.154
33.341,35.219
33.316,35.298
33.292,35.39
33.268,35.492
33.243,35.603
33.218,35.72
33.194,35.842
33.171,35.966
33.152,36.09
33.135,36.213
33.123,36.333
33.116,36.447
33.114,36.553
33.121,36.65
33.138,36.736
33.169,36.81
33.217,36.87
33.286,36.916
33.378,36.946
33.498,36.96
33.644,36.958
33.82,36.942
34.023,36.912
34.251,36.871
34.503,36.82
34.775,36.758
35.064,36.687
35.365,36.605
35.675,36.513
35.989,36.411
36.303,36.301
36.614,36.184
36.918,36.061
37.212,35.935
37.493,35.805
37.757,35.674
38.002,35.543
38.227,35.412
38.429,35.282
38.608,35.153
38.764,35.024
38.897,34.898
39.007,34.773
39.094,34.652
39.159,34.535
39.202,34.422
39.226,34.314
39.232,34.209
39.222,34.107
39.198,34.008
39.161,33.91
39.113,33.813
39.054,33.719
38.985,33.628
38.907,33.54
38.82,33.457
38.727,33.379
38.628,33.307
38.526,33.24
38.421,33.177
38.315,33.118
38.209,33.061
38.104,33.008
38.001,32.957
37.901,32.91
37.804,32.867
37.71,32.827
37.618,32.79
37.528,32.754
37.44,32.72
37.353,32.686
37.266,32.653
37.181,32.621
37.095,32.59
37.009,32.561
36.923,32.535
36.838,32.511
36.755,32.49
36.672,32.473
36.592,32.458
36.512,32.444
36.435,32.43
36.36,32.416
36.289,32.401
36.22,32.384
36.154,32.366
36.092,32.347
36.035,32.326
35.983,32.303
35.934,32.278
35.889,32.252
35.848,32.225
35.812,32.198
35.782,32.171
35.758,32.144
35.74,32.117
35.729,32.091
35.723,32.067
35.722,32.047
35.726,32.032
35.734,32.023
35.748,32.025
35.764,32.041
35.784,32.075
35.805,32.133
35.827,32.219
35.849,32.341
35.869,32.503
35.885,32.712
35.897,32.97
35.905,33.28
35.908,33.642
35.906,34.052
35.9,34.507
35.887,35
35.868,35.522
35.844,36.066
35.814,36.62
35.778,37.177
35.737,37.728
35.701,38.265
35.673,38.781
35.652,39.271
35.636,39.73
35.62,40.153
35.599,40.536
35.57,40.877
35.53,41.173
35.476,41.425
35.409,41.631
35.328,41.79
35.236,41.905
35.134,41.976
35.024,42.007
34.909,42.001
34.793,41.962
34.678,41.892
34.567,41.795
34.461,41.675
34.362,41.533
34.27,41.373
34.187,41.195
34.113,41.002
34.047,40.794
33.989,40.573
33.938,40.34
33.893,40.1
33.854,39.853
33.818,39.603
33.785,39.352
33.753,39.101
33.722,38.851
33.69,38.605
33.658,38.363
33.627,38.126
33.597,37.893
33.569,37.665
33.542,37.44
33.517,37.218
33.492,36.999
33.468,36.782
33.443,36.57
33.418,36.364
33.392,36.167
33.367,35.978
33.342,35.799
33.318,35.63
33.295,35.472
33.273,35.325
33.253,35.19
33.234,35.071
33.215,34.966
33.196,34.878
33.177,34.809
33.156,34.758
33.132,34.727
33.107,34.716
33.079,34.723
33.051,34.749
33.023,34.791
32.996,34.848
32.969,34.919
32.943,35.001
32.918,35.095
32.894,35.2
32.872,35.314
32.852,35.437
32.836,35.565
32.825,35.698
32.821,35.831
32.828,35.965
32.848,36.095
32.885,36.22
32.941,36.336
33.018,36.442
33.119,36.535
33.246,36.615
33.401,36.681
33.585,36.733
33.797,36.77
34.037,36.792
34.302,36.8
34.589,36.792
34.894,36.771
35.212,36.736
35.539,36.688
35.868,36.627
36.196,36.555
36.517,36.473
36.828,36.382
37.125,36.283
37.404,36.176
37.662,36.063
37.896,35.946
38.106,35.824
38.29,35.699
38.447,35.57
38.58,35.439
38.687,35.304
38.77,35.168
38.83,35.032
38.868,34.895
38.887,34.76
38.888,34.626
38.873,34.495
38.845,34.368
38.806,34.245
38.756,34.126
38.697,34.013
38.629,33.905
38.554,33.802
38.474,33.704
38.39,33.611
38.303,33.523
38.214,33.44
38.123,33.361
38.03,33.287
37.935,33.217
37.838,33.151
37.74,33.088
37.643,33.028
37.547,32.97
37.451,32.917
37.356,32.867
37.262,32.82
37.168,32.775
37.076,32.733
36.985,32.693
36.895,32.655
36.805,32.618
36.714,32.582
36.623,32.549
36.531,32.519
36.437,32.492
36.343,32.469
36.251,32.449
36.16,32.432
36.073,32.417
35.992,32.405
35.919,32.393
35.854,32.383
35.798,32.374
35.748,32.366
35.707,32.358
35.672,32.351
35.643,32.342
35.619,32.332
35.602,32.318
35.588,32.302
35.579,32.282
35.573,32.26
35.571,32.235
35.573,32.209
35.577,32.181
35.584,32.153
35.593,32.125
35.605,32.098
35.62,32.072
35.637,32.048
35.657,32.027
35.677,32.012
35.698,32.003
35.721,32.005
35.744,32.019
35.767,32.048
35.788,32.098
35.807,32.17
35.822,32.271
35.832,32.403
35.836,32.571
35.832,32.779
35.818,33.029
35.794,33.323
35.76,33.661
35.716,34.042
35.666,34.463
35.612,34.919
35.554,35.401
35.492,35.902
35.427,36.413
35.359,36.924
35.288,37.428
35.215,37.914
35.139,38.371
35.062,38.791
34.985,39.17
34.907,39.51
34.831,39.811
34.757,40.076
34.685,40.307
34.614,40.505
34.545,40.673
34.477,40.812
34.412,40.923
34.349,41.007
34.288,41.065
34.228,41.096
34.169,41.1
34.111,41.078
34.055,41.031
34,40.96
33.946,40.866
33.893,40.751
33.84,40.616
33.788,40.462
33.736,40.291
33.688,40.103
33.641,39.901
33.598,39.686
33.559,39.461
33.523,39.229
33.489,38.992
33.458,38.754
33.429,38.517
33.402,38.284
33.376,38.054
33.351,37.828
33.326,37.607
33.302,37.39
33.279,37.177
33.256,36.967
33.234,36.759
33.213,36.553
33.194,36.349
33.179,36.147
33.166,35.949
33.154,35.756
33.143,35.571
33.13,35.394
33.115,35.229
33.099,35.077
33.079,34.94
33.058,34.82
33.034,34.717
33.01,34.633
32.983,34.567
32.955,34.521
32.927,34.495
32.897,34.489
32.867,34.504
32.836,34.539
32.805,34.595
32.776,34.67
32.749,34.761
32.726,34.868
32.708,34.988
32.697,35.119
32.692,35.259
32.697,35.407
32.713,35.558
32.742,35.712
32.788,35.864
32.853,36.012
32.94,36.154
33.052,36.288
33.194,36.413
33.367,36.527
33.571,36.629
33.807,36.719
34.071,36.794
34.359,36.853
34.666,36.897
34.989,36.923
35.322,36.933
35.658,36.928
35.994,36.907
36.324,36.871
36.643,36.823
36.948,36.764
37.236,36.693
37.502,36.614
37.745,36.526
37.963,36.432
38.154,36.329
38.319,36.219
38.457,36.103
38.57,35.98
38.658,35.852
38.722,35.721
38.763,35.588
38.783,35.453
38.782,35.319
38.763,35.185
38.728,35.053
38.68,34.923
38.621,34.795
38.553,34.67
38.477,34.548
38.394,34.431
38.305,34.317
38.212,34.208
38.114,34.103
38.014,34.002
37.912,33.905
37.809,33.812
37.707,33.723
37.606,33.636
37.507,33.552
37.41,33.47
37.315,33.392
37.219,33.317
37.124,33.248
37.027,33.185
36.93,33.127
36.833,33.075
36.736,33.029
36.639,32.989
36.543,32.953
36.447,32.921
36.35,32.892
36.254,32.866
36.159,32.841
36.064,32.82
35.971,32.8
35.881,32.783
35.794,32.766
35.713,32.752
35.636,32.738
35.566,32.725
35.503,32.713
35.449,32.7
35.405,32.688
35.37,32.675
35.344,32.662
35.327,32.648
35.318,32.634
35.316,32.619
35.322,32.602
35.332,32.583
35.347,32.561
35.365,32.536
35.385,32.509
35.406,32.478
35.429,32.445
35.452,32.411
35.477,32.376
35.501,32.343
35.525,32.312
35.548,32.287
35.568,32.268
35.587,32.259
35.604,32.262
35.618,32.28
35.628,32.317
35.634,32.376
35.635,32.46
35.63,32.575
35.618,32.725
35.601,32.912
35.577,33.141
35.548,33.414
35.513,33.73
35.474,34.09
35.432,34.491
35.385,34.926
35.333,35.389
35.278,35.874
35.218,36.371
35.156,36.872
35.092,37.369
35.027,37.855
34.962,38.324
34.896,38.77
34.83,39.189
34.762,39.577
34.692,39.932
34.621,40.251
34.548,40.535
34.474,40.782
34.399,40.993
34.325,41.169
34.252,41.312
34.182,41.423
34.114,41.502
34.05,41.551
33.988,41.569
33.927,41.558
33.868,41.518
33.81,41.449
33.754,41.354
33.701,41.235
33.651,41.094
33.604,40.933
33.561,40.755
33.52,40.563
33.482,40.358
33.446,40.143
33.41,39.921
33.375,39.696
33.34,39.468
33.305,39.241
33.27,39.015
33.236,38.793
33.203,38.573
33.171,38.356
33.142,38.141
33.116,37.929
33.091,37.72
33.07,37.513
33.05,37.308
33.033,37.106
33.018,36.906
33.005,36.707
32.995,36.512
32.986,36.32
32.98,36.132
32.974,35.949
32.969,35.776
32.962,35.613
32.953,35.463
32.941,35.328
32.926,35.209
32.908,35.108
32.888,35.026
32.864,34.964
32.838,34.921
32.81,34.896
32.78,34.891
32.75,34.904
32.72,34.934
32.691,34.981
32.663,35.044
32.638,35.122
32.614,35.212
32.592,35.314
32.573,35.426
32.558,35.544
32.549,35.667
32.548,35.793
32.557,35.92
32.58,36.045
32.618,36.165
32.676,36.279
32.756,36.386
32.861,36.483
32.994,36.569
33.157,36.644
33.353,36.706
33.58,36.755
33.839,36.789
34.126,36.809
34.438,36.814
34.772,36.804
35.119,36.779
35.472,36.74
35.824,36.688
36.167,36.624
36.497,36.549
36.808,36.465
37.098,36.372
37.363,36.273
37.602,36.169
37.814,36.06
38.001,35.947
38.16,35.831
38.294,35.712
38.402,35.591
38.486,35.466
38.546,35.34
38.585,35.213
38.604,35.085
38.605,34.959
38.591,34.834
38.562,34.712
38.52,34.593
38.467,34.478
38.402,34.366
38.327,34.256
38.243,34.15
38.152,34.047
38.057,33.947
37.96,33.85
37.86,33.758
37.759,33.669
37.656,33.584
37.552,33.503
37.448,33.426
37.343,33.352
37.236,33.283
37.128,33.218
37.02,33.157
36.911,33.102
36.804,33.05
36.696,33.003
36.589,32.958
36.481,32.917
36.374,32.878
36.267,32.842
36.163,32.808
36.061,32.776
35.962,32.746
35.867,32.719
35.775,32.694
35.687,32.672
35.603,32.652
35.523,32.633
35.447,32.616
35.375,32.598
35.309,32.58
35.25,32.561
35.2,32.542
35.158,32.523
35.126,32.504
35.101,32.486
35.083,32.468
35.072,32.451
35.066,32.434
35.068,32.418
35.075,32.402
35.09,32.386
35.112,32.369
35.139,32.351
35.171,32.333
35.206,32.315
35.243,32.296
35.281,32.277
35.319,32.258
35.354,32.241
35.387,32.226
35.416,32.213
35.442,32.203
35.463,32.198
35.48,32.2
35.491,32.213
35.499,32.24
35.502,32.285
35.5,32.355
35.493,32.456
35.481,32.592
35.464,32.769
35.442,32.991
35.414,33.261
35.379,33.581
35.338,33.948
35.293,34.361
35.244,34.814
35.192,35.299
35.136,35.81
35.078,36.338
35.017,36.874
34.955,37.411
34.891,37.942
34.824,38.458
34.756,38.956
34.686,39.428
34.614,39.871
34.542,40.281
34.472,40.655
34.403,40.992
34.335,41.289
34.268,41.547
34.203,41.764
34.139,41.941
34.075,42.076
34.012,42.171
33.95,42.226
33.889,42.244
33.829,42.227
33.771,42.178
33.715,42.099
33.662,41.994
33.611,41.865
33.561,41.716
33.512,41.548
33.464,41.365
33.417,41.168
33.373,40.962
33.331,40.747
33.293,40.528
33.259,40.306
33.228,40.083
33.201,39.86
33.176,39.639
33.152,39.421
33.129,39.206
33.105,38.995
33.082,38.787
33.058,38.584
33.033,38.385
33.009,38.189
32.986,37.996
32.962,37.806
32.94,37.619
32.919,37.435
32.899,37.253
32.881,37.076
32.866,36.902
32.852,36.733
32.839,36.567
32.826,36.407
32.812,36.253
32.797,36.106
32.781,35.969
32.766,35.843
32.75,35.729
32.733,35.629
32.716,35.544
32.697,35.476
32.677,35.425
32.655,35.392
32.632,35.377
32.608,35.381
32.582,35.401
32.558,35.438
32.535,35.49
32.516,35.557
32.5,35.638
32.488,35.731
32.482,35.834
32.483,35.945
32.493,36.06
32.515,36.178
32.551,36.294
32.605,36.407
32.68,36.514
32.78,36.613
32.909,36.704
33.069,36.785
33.261,36.854
33.487,36.911
33.745,36.955
34.033,36.987
34.347,37.006
34.681,37.011
35.029,37.002
35.385,36.978
35.744,36.937
36.1,36.874
36.447,36.788
36.78,36.682
37.095,36.561
37.386,36.431
37.649,36.295
37.881,36.158
38.082,36.023
38.252,35.891
38.389,35.764
38.497,35.643
38.575,35.529
38.627,35.42
38.655,35.316
38.66,35.217
38.644,35.119
38.61,35.024
38.558,34.928
38.492,34.831
38.415,34.733
38.33,34.633
38.237,34.53
38.14,34.426
38.038,34.319
37.934,34.212
37.828,34.104
37.72,33.997
37.61,33.892
37.498,33.79
37.386,33.692
37.274,33.599
37.164,33.511
37.055,33.428
36.947,33.351
36.839,33.278
36.731,33.21
36.623,33.147
36.515,33.087
36.405,33.032
36.294,32.982
36.182,32.935
36.07,32.893
35.958,32.854
35.848,32.817
35.74,32.783
35.636,32.75
35.534,32.719
35.435,32.69
35.34,32.661
35.25,32.635
35.165,32.61
35.088,32.587
35.018,32.566
34.957,32.547
34.906,32.531
34.864,32.516
34.831,32.503
34.807,32.491
34.791,32.482
34.782,32.476
34.78,32.473
34.784,32.472
34.795,32.471
34.811,32.47
34.832,32.467
34.859,32.462
34.89,32.452
34.926,32.437
34.965,32.418
35.007,32.395
35.052,32.369
35.099,32.341
35.147,32.311
35.194,32.281
35.238,32.251
35.276,32.221
35.309,32.194
35.335,32.17
35.354,32.153
35.367,32.145
35.373,32.149
35.372,32.167
35.364,32.203
35.35,32.262
35.33,32.35
35.304,32.47
35.274,32.629
35.239,32.83
35.2,33.077
35.157,33.373
35.111,33.718
35.06,34.111
35.007,34.547
34.949,35.022
34.888,35.528
34.824,36.058
34.757,36.604
34.688,37.156
34.618,37.706
34.548,38.247
34.476,38.772
34.405,39.274
34.335,39.749
34.267,40.191
34.202,40.598
34.139,40.968
34.078,41.299
34.019,41.589
33.962,41.839
33.907,42.048
33.852,42.217
33.798,42.347
33.743,42.441
33.687,42.5
33.63,42.525
33.573,42.518
33.517,42.479
33.464,42.411
33.412,42.314
33.362,42.19
33.314,42.042
33.268,41.872
33.226,41.683
33.187,41.479
33.151,41.263
33.119,41.04
33.088,40.811
33.059,40.579
33.031,40.347
33.006,40.117
32.982,39.89
32.959,39.666
32.938,39.446
32.918,39.232
32.9,39.022
32.881,38.817
32.865,38.616
32.849,38.419
32.836,38.226
32.824,38.035
32.812,37.848
32.802,37.663
32.792,37.482
32.783,37.303
32.773,37.128
32.761,36.957
32.748,36.792
32.732,36.632
32.715,36.481
32.696,36.339
32.677,36.209
32.656,36.09
32.634,35.985
32.611,35.893
32.587,35.815
32.563,35.751
32.539,35.703
32.515,35.67
32.495,35.653
32.478,35.651
32.466,35.664
32.461,35.691
32.464,35.732
32.477,35.787
32.502,35.854
32.542,35.932
32.598,36.02
32.674,36.116
32.772,36.217
32.894,36.321
33.043,36.427
33.222,36.531
33.434,36.63
33.677,36.723
33.953,36.806
34.259,36.878
34.59,36.937
34.942,36.982
35.308,37.013
35.683,37.03
36.059,37.035
36.429,37.027
36.786,37.008
37.123,36.979
37.435,36.94
37.719,36.891
37.969,36.835
38.185,36.771
38.366,36.701
38.513,36.623
38.627,36.537
38.709,36.443
38.76,36.339
38.783,36.227
38.778,36.108
38.749,35.982
38.7,35.85
38.633,35.715
38.551,35.576
38.458,35.435
38.355,35.29
38.245,35.144
38.129,34.996
38.007,34.848
37.883,34.701
37.757,34.556
37.631,34.417
37.507,34.282
37.385,34.154
37.266,34.032
37.15,33.918
37.036,33.811
36.924,33.71
36.814,33.616
36.702,33.529
36.59,33.448
36.476,33.373
36.361,33.304
36.245,33.24
36.13,33.18
36.016,33.123
35.904,33.07
35.793,33.019
35.683,32.971
35.576,32.928
35.472,32.887
35.371,32.851
35.275,32.819
35.183,32.79
35.097,32.763
35.017,32.739
34.942,32.718
34.872,32.699
34.807,32.682
34.748,32.666
34.696,32.651
34.652,32.637
34.617,32.622
34.592,32.608
34.58,32.593
34.58,32.578
34.592,32.561
34.616,32.543
34.651,32.523
34.695,32.503
34.748,32.483
34.807,32.464
34.871,32.444
34.937,32.425
35.003,32.406
35.068,32.389
35.131,32.372
35.189,32.356
35.244,32.34
35.293,32.325
35.335,32.309
35.371,32.295
35.401,32.28
35.425,32.266
35.441,32.251
35.45,32.234
35.451,32.215
35.445,32.194
35.431,32.169
35.409,32.143
35.38,32.115
35.345,32.085
35.304,32.056
35.258,32.028
35.207,32.003
35.152,31.984
35.092,31.974
35.029,31.975
34.962,31.992
34.89,32.028
34.816,32.088
34.74,32.178
34.664,32.304
34.588,32.472
34.513,32.688
34.44,32.956
34.369,33.278
34.3,33.654
34.232,34.082
34.166,34.556
34.103,35.069
34.041,35.613
33.982,36.178
33.925,36.755
33.87,37.335
33.817,37.91
33.765,38.472
33.715,39.014
33.666,39.532
33.617,40.019
33.567,40.473
33.518,40.89
33.47,41.269
33.424,41.606
33.381,41.902
33.341,42.156
33.304,42.366
33.27,42.534
33.236,42.657
33.203,42.737
33.169,42.774
33.136,42.771
33.104,42.728
33.074,42.649
33.045,42.537
33.02,42.396
32.998,42.229
32.98,42.042
32.964,41.837
32.949,41.618
32.934,41.389
32.919,41.153
32.904,40.913
32.889,40.671
32.874,40.429
32.86,40.189
32.846,39.951
32.832,39.717
32.819,39.488
32.805,39.262
32.79,39.04
32.775,38.822
32.758,38.609
32.74,38.399
32.721,38.195
32.7,37.994
32.679,37.798
32.659,37.606
32.641,37.418
32.626,37.236
32.614,37.058
32.607,36.885
32.604,36.719
32.608,36.561
32.619,36.411
32.639,36.27
32.67,36.14
32.715,36.02
32.777,35.911
32.858,35.813
32.964,35.728
33.096,35.657
33.258,35.601
33.45,35.56
33.674,35.536
33.929,35.53
34.213,35.542
34.524,35.57
34.858,35.615
35.21,35.676
35.573,35.751
35.941,35.837
36.306,35.932
36.661,36.034
37.001,36.139
37.321,36.247
37.615,36.354
37.88,36.459
38.112,36.56
38.309,36.656
38.471,36.745
38.596,36.825
38.686,36.896
38.744,36.955
38.771,37
38.77,37.03
38.746,37.044
38.701,37.041
38.639,37.021
38.561,36.985
38.472,36.934
38.373,36.869
38.266,36.793
38.155,36.706
38.039,36.612
37.921,36.512
37.8,36.409
37.679,36.303
37.558,36.194
37.436,36.083
37.314,35.97
37.191,35.853
37.068,35.732
36.946,35.608
36.826,35.48
36.707,35.35
36.589,35.219
36.472,35.087
36.354,34.956
36.234,34.826
36.113,34.696
35.992,34.568
35.869,34.44
35.748,34.313
35.628,34.186
35.51,34.061
35.395,33.938
35.284,33.818
35.175,33.703
35.07,33.594
34.969,33.491
34.874,33.396
34.788,33.306
34.713,33.224
34.65,33.147
34.598,33.077
34.556,33.012
34.524,32.952
34.5,32.898
34.485,32.849
34.477,32.806
34.477,32.767
34.484,32.733
34.5,32.701
34.524,32.673
34.556,32.646
34.597,32.622
34.645,32.598
34.699,32.576
34.757,32.555
34.819,32.535
34.882,32.515
34.946,32.498
35.009,32.481
35.068,32.466
35.123,32.452
35.173,32.439
35.217,32.427
35.253,32.415
35.281,32.405
35.301,32.396
35.313,32.387
35.318,32.38
35.315,32.372
35.305,32.363
35.289,32.355
35.267,32.346
35.239,32.337
35.206,32.326
35.168,32.314
35.126,32.299
35.08,32.283
35.029,32.266
34.975,32.247
34.917,32.23
34.857,32.215
34.795,32.2
34.732,32.186
34.668,32.172
34.601,32.159
34.531,32.144
34.458,32.127
34.384,32.108
34.307,32.087
34.23,32.062
34.153,32.036
34.079,32.007
34.008,31.976
33.94,31.945
33.876,31.912
33.815,31.879
33.759,31.847
33.706,31.816
33.657,31.787
33.61,31.762
33.566,31.744
33.524,31.734
33.484,31.738
33.445,31.758
33.408,31.8
33.371,31.87
33.335,31.973
33.299,32.116
33.263,32.304
33.227,32.544
33.192,32.837
33.158,33.186
33.124,33.589
33.09,34.043
33.056,34.542
33.023,35.08
32.992,35.647
32.963,36.235
32.939,36.834
32.917,37.436
32.897,38.031
32.88,38.613
32.863,39.174
32.849,39.707
32.835,40.207
32.823,40.669
32.811,41.088
32.8,41.46
32.788,41.783
32.776,42.057
32.764,42.279
32.751,42.451
32.736,42.574
32.72,42.651
32.701,42.684
32.68,42.677
32.658,42.635
32.637,42.56
32.617,42.456
32.602,42.326
32.592,42.176
32.591,42.007
32.6,41.822
32.624,41.624
32.666,41.415
32.729,41.195
32.817,40.968
32.93,40.732
33.072,40.49
33.244,40.244
33.449,39.993
33.689,39.742
33.961,39.49
34.264,39.241
34.593,38.996
34.944,38.757
35.31,38.526
35.685,38.302
36.062,38.087
36.434,37.879
36.793,37.679
37.133,37.484
37.449,37.293
37.735,37.106
37.99,36.922
38.211,36.741
38.397,36.565
38.546,36.394
38.662,36.231
38.744,36.077
38.796,35.935
38.82,35.804
38.819,35.687
38.796,35.585
38.754,35.498
38.695,35.426
38.623,35.372
38.539,35.334
38.446,35.314
38.346,35.311
38.241,35.326
38.134,35.358
38.025,35.407
37.916,35.471
37.805,35.548
37.693,35.636
37.579,35.733
37.463,35.838
37.344,35.948
37.222,36.063
37.096,36.181
36.968,36.299
36.838,36.414
36.707,36.524
36.575,36.627
36.443,36.72
36.311,36.8
36.178,36.866
36.045,36.919
35.913,36.957
35.781,36.98
35.652,36.99
35.524,36.986
35.4,36.969
35.28,36.939
35.164,36.896
35.056,36.841
34.955,36.772
34.861,36.691
34.776,36.596
34.698,36.49
34.629,36.373
34.569,36.247
34.52,36.114
34.48,35.975
34.451,35.833
34.433,35.689
34.425,35.545
34.427,35.402
34.439,35.26
34.461,35.119
34.491,34.979
34.528,34.843
34.571,34.711
34.621,34.584
34.677,34.46
34.738,34.34
34.802,34.224
34.868,34.112
34.933,34.002
34.996,33.895
35.057,33.79
35.114,33.688
35.168,33.586
35.217,33.485
35.26,33.386
35.297,33.288
35.329,33.193
35.353,33.101
35.371,33.013
35.382,32.931
35.384,32.855
35.379,32.786
35.367,32.726
35.349,32.674
35.324,32.628
35.292,32.587
35.254,32.552
35.21,32.52
35.16,32.491
35.106,32.464
35.048,32.439
34.985,32.417
34.919,32.396
34.849,32.378
34.777,32.362
34.701,32.347
34.625,32.333
34.549,32.319
34.474,32.304
34.399,32.29
34.325,32.276
34.253,32.264
34.182,32.254
34.113,32.246
34.045,32.239
33.979,32.232
33.916,32.227
33.855,32.221
33.798,32.214
33.745,32.206
33.695,32.198
33.649,32.191
33.605,32.184
33.564,32.177
33.525,32.171
33.486,32.165
33.448,32.157
33.41,32.149
33.372,32.139
33.335,32.128
33.3,32.117
33.265,32.106
33.233,32.095
33.202,32.083
33.174,32.071
33.149,32.056
33.126,32.039
33.106,32.019
33.087,31.996
33.068,31.971
33.049,31.943
33.03,31.913
33.011,31.881
32.992,31.848
32.973,31.812
32.954,31.773
32.935,31.732
32.916,31.689
32.897,31.646
32.877,31.604
32.856,31.565
32.834,31.532
32.814,31.507
32.795,31.492
32.781,31.49
32.772,31.506
32.769,31.546
32.77,31.615
32.776,31.72
32.788,31.87
32.807,32.069
32.836,32.323
32.878,32.635
32.936,33.006
33.014,33.434
33.115,33.915
33.244,34.442
33.405,35.006
33.599,35.598
33.827,36.209
34.087,36.827
34.376,37.443
34.69,38.049
35.027,38.636
35.381,39.196
35.745,39.725
36.114,40.218
36.478,40.67
36.833,41.078
37.172,41.44
37.488,41.755
37.778,42.022
38.036,42.241
38.26,42.412
38.45,42.537
38.605,42.617
38.726,42.653
38.815,42.648
38.874,42.605
38.907,42.526
38.916,42.413
38.904,42.271
38.873,42.101
38.826,41.909
38.764,41.697
38.69,41.469
38.604,41.23
38.508,40.983
38.403,40.73
38.291,40.476
38.173,40.221
38.05,39.967
37.922,39.717
37.792,39.471
37.66,39.229
37.527,38.992
37.394,38.759
37.261,38.53
37.129,38.304
37,38.081
36.871,37.86
36.743,37.642
36.616,37.428
36.49,37.217
36.364,37.013
36.241,36.814
36.119,36.622
35.999,36.438
35.88,36.261
35.764,36.091
35.648,35.93
35.534,35.778
35.42,35.636
35.308,35.504
35.2,35.385
35.097,35.28
35,35.19
34.91,35.117
34.828,35.062
34.756,35.025
34.696,35.006
34.647,35.005
34.61,35.021
34.583,35.053
34.568,35.102
34.563,35.165
34.569,35.244
34.585,35.335
34.611,35.439
34.646,35.553
34.689,35.675
34.739,35.804
34.795,35.935
34.855,36.067
34.917,36.195
34.98,36.317
35.042,36.431
35.102,36.533
35.161,36.621
35.218,36.696
35.283,36.754
35.357,36.798
35.438,36.825
35.523,36.836
35.606,36.83
35.681,36.808
35.743,36.77
35.786,36.717
35.81,36.651
35.815,36.572
35.801,36.484
35.77,36.388
35.725,36.285
35.665,36.176
35.594,36.061
35.513,35.942
35.426,35.817
35.335,35.687
35.244,35.552
35.153,35.414
35.063,35.273
34.977,35.129
34.894,34.982
34.815,34.835
34.741,34.688
34.669,34.543
34.6,34.4
34.533,34.261
34.467,34.127
34.403,33.996
34.342,33.871
34.282,33.751
34.224,33.636
34.167,33.528
34.112,33.426
34.058,33.329
34.005,33.238
33.953,33.153
33.901,33.073
33.85,32.997
33.801,32.925
33.752,32.857
33.705,32.791
33.659,32.728
33.616,32.666
33.575,32.607
33.537,32.551
33.501,32.498
33.467,32.449
33.436,32.403
33.408,32.362
33.382,32.323
33.358,32.288
33.336,32.254
33.313,32.223
33.291,32.194
33.268,32.167
33.245,32.142
33.222,32.122
33.198,32.104
33.173,32.09
33.149,32.079
33.124,32.069
33.101,32.061
33.078,32.052
33.056,32.044
33.037,32.037
33.019,32.03
33.004,32.025
32.99,32.02
32.979,32.016
32.97,32.013
32.965,32.009
32.962,32.005
32.964,32.001
32.969,31.997
32.981,31.994
32.999,31.991
33.027,31.989
33.068,31.989
33.126,31.988
33.205,31.987
33.308,31.984
33.441,31.976
33.606,31.964
33.805,31.948
34.038,31.927
34.303,31.904
34.598,31.877
34.917,31.847
35.257,31.813
35.611,31.775
35.972,31.735
36.334,31.692
36.691,31.648
37.035,31.603
37.362,31.559
37.669,31.519
37.95,31.483
38.203,31.454
38.424,31.433
38.612,31.421
38.767,31.42
38.888,31.432
38.976,31.461
39.033,31.513
39.059,31.592
39.058,31.706
39.033,31.861
38.987,32.061
38.925,32.312
38.849,32.618
38.762,32.98
38.666,33.397
38.564,33.866
38.458,34.382
38.348,34.936
38.235,35.519
38.121,36.119
38.007,36.728
37.893,37.334
37.78,37.929
37.667,38.504
37.553,39.051
37.438,39.565
37.322,40.041
37.204,40.475
37.085,40.866
36.965,41.211
36.844,41.509
36.723,41.76
36.602,41.965
36.482,42.123
36.363,42.236
36.245,42.304
36.128,42.332
36.012,42.32
35.898,42.274
35.788,42.194
35.683,42.085
35.582,41.948
35.488,41.786
35.399,41.601
35.317,41.396
35.242,41.174
35.175,40.936
35.115,40.687
35.064,40.427
35.022,40.162
34.99,39.891
34.968,39.618
34.956,39.345
34.956,39.074
34.966,38.805
34.986,38.541
35.017,38.282
35.056,38.03
35.103,37.786
35.155,37.549
35.212,37.321
35.272,37.101
35.333,36.889
35.393,36.685
35.453,36.487
35.511,36.294
35.566,36.106
35.618,35.923
35.664,35.746
35.705,35.575
35.739,35.412
35.766,35.258
35.785,35.114
35.796,34.983
35.799,34.865
35.792,34.762
35.778,34.676
35.756,34.607
35.729,34.555
35.697,34.521
35.661,34.506
35.621,34.511
35.577,34.537
35.53,34.584
35.48,34.652
35.425,34.739
35.367,34.842
35.306,34.959
35.244,35.087
35.18,35.222
35.115,35.362
35.05,35.504
34.985,35.646
34.919,35.787
34.851,35.927
34.781,36.063
34.71,36.192
34.641,36.313
34.573,36.421
34.509,36.515
34.449,36.593
34.392,36.651
34.337,36.69
34.285,36.708
34.234,36.706
34.185,36.685
34.138,36.647
34.093,36.595
34.05,36.531
34.01,36.455
33.973,36.369
33.938,36.275
33.906,36.173
33.874,36.062
33.841,35.945
33.807,35.82
33.771,35.688
33.734,35.549
33.696,35.405
33.658,35.257
33.621,35.107
33.584,34.955
33.548,34.803
33.514,34.651
33.482,34.501
33.452,34.353
33.422,34.208
33.393,34.067
33.365,33.93
33.336,33.797
33.309,33.669
33.284,33.547
33.261,33.428
33.242,33.315
33.226,33.206
33.213,33.102
33.202,33.002
33.193,32.906
33.184,32.816
33.176,32.731
33.169,32.652
33.164,32.58
33.162,32.514
33.165,32.456
33.176,32.403
33.197,32.356
33.233,32.313
33.287,32.274
33.361,32.241
33.459,32.211
33.585,32.184
33.741,32.159
33.931,32.135
34.154,32.112
34.408,32.089
34.693,32.066
35.003,32.044
35.331,32.021
35.666,31.999
36,31.977
36.33,31.955
36.65,31.933
36.959,31.913
37.252,31.894
37.529,31.878
37.786,31.863
38.021,31.848
38.233,31.833
38.421,31.818
38.584,31.803
38.722,31.788
38.834,31.774
38.92,31.762
38.981,31.752
39.017,31.744
39.03,31.74
39.022,31.74
38.996,31.743
38.955,31.749
38.9,31.757
38.833,31.765
38.755,31.772
38.668,31.775
38.573,31.775
38.472,31.77
38.366,31.76
38.258,31.745
38.148,31.726
38.039,31.703
37.931,31.676
37.825,31.647
37.72,31.616
37.615,31.582
37.509,31.548
37.404,31.515
37.299,31.484
37.194,31.456
37.087,31.431
36.978,31.411
36.868,31.397
36.755,31.391
36.641,31.399
36.525,31.423
36.408,31.469
36.291,31.547
36.177,31.662
36.066,31.822
35.961,32.034
35.862,32.3
35.768,32.623
35.68,33.004
35.599,33.439
35.526,33.924
35.46,34.453
35.404,35.016
35.355,35.604
35.317,36.207
35.288,36.815
35.271,37.417
35.264,38.006
35.268,38.572
35.28,39.11
35.299,39.612
35.326,40.074
35.359,40.492
35.397,40.863
35.44,41.187
35.487,41.462
35.537,41.688
35.589,41.867
35.64,41.999
35.689,42.086
35.736,42.131
35.78,42.136
35.82,42.106
35.857,42.042
35.888,41.947
35.915,41.825
35.935,41.679
35.948,41.511
35.953,41.324
35.95,41.121
35.94,40.904
35.922,40.675
35.898,40.436
35.869,40.191
35.834,39.94
35.794,39.685
35.748,39.427
35.696,39.167
35.64,38.908
35.581,38.65
35.518,38.394
35.458,38.142
35.409,37.892
35.372,37.646
35.345,37.404
35.325,37.165
35.306,36.929
35.285,36.696
35.258,36.467
35.221,36.24
35.174,36.019
35.116,35.804
35.046,35.595
34.966,35.395
34.878,35.204
34.783,35.023
34.684,34.855
34.583,34.701
34.482,34.563
34.383,34.443
34.288,34.343
34.201,34.262
34.121,34.203
34.05,34.165
33.988,34.149
33.937,34.154
33.894,34.179
33.858,34.226
33.827,34.291
33.8,34.376
33.773,34.477
33.748,34.593
33.722,34.72
33.696,34.858
33.669,35.003
33.641,35.154
33.613,35.307
33.584,35.462
33.555,35.617
33.526,35.77
33.497,35.917
33.469,36.057
33.441,36.187
33.413,36.304
33.386,36.404
33.36,36.485
33.337,36.547
33.315,36.586
33.296,36.605
33.276,36.603
33.257,36.582
33.236,36.545
33.216,36.492
33.196,36.426
33.178,36.347
33.163,36.257
33.152,36.157
33.149,36.046
33.155,35.925
33.173,35.796
33.206,35.658
33.256,35.514
33.327,35.366
33.421,35.216
33.541,35.065
33.69,34.916
33.869,34.769
34.079,34.625
34.318,34.483
34.585,34.344
34.877,34.208
35.188,34.074
35.516,33.941
35.852,33.811
36.192,33.683
36.529,33.558
36.86,33.437
37.178,33.321
37.478,33.211
37.756,33.107
38.009,33.009
38.234,32.917
38.431,32.83
38.599,32.748
38.74,32.67
38.853,32.596
38.942,32.525
39.005,32.459
39.044,32.396
39.061,32.336
39.058,32.28
39.037,32.226
38.999,32.174
38.947,32.126
38.884,32.08
38.811,32.036
38.729,31.994
38.639,31.956
38.544,31.921
38.444,31.888
38.338,31.859
38.229,31.833
38.115,31.81
37.999,31.789
37.881,31.77
37.762,31.754
37.644,31.741
37.528,31.73
37.416,31.721
37.307,31.713
37.201,31.707
37.097,31.702
36.994,31.698
36.893,31.695
36.792,31.692
36.691,31.69
36.591,31.688
36.491,31.686
36.391,31.684
36.291,31.68
36.193,31.676
36.096,31.67
36.001,31.662
35.91,31.653
35.822,31.641
35.738,31.628
35.659,31.612
35.586,31.594
35.52,31.575
35.463,31.555
35.416,31.534
35.378,31.514
35.351,31.494
35.334,31.476
35.329,31.459
35.332,31.443
35.344,31.427
35.364,31.413
35.392,31.399
35.427,31.386
35.471,31.374
35.519,31.365
35.572,31.359
35.625,31.359
35.678,31.366
35.73,31.384
35.779,31.416
35.824,31.469
35.866,31.548
35.902,31.658
35.933,31.807
35.959,32.002
35.979,32.248
35.992,32.549
35.997,32.907
35.994,33.322
35.982,33.792
35.962,34.311
35.936,34.874
35.904,35.471
35.868,36.092
35.828,36.727
35.784,37.362
35.737,37.987
35.688,38.591
35.636,39.162
35.581,39.694
35.523,40.181
35.464,40.617
35.402,41.001
35.339,41.332
35.275,41.609
35.211,41.833
35.145,42.007
35.079,42.131
35.012,42.21
34.944,42.247
34.875,42.243
34.806,42.202
34.738,42.129
34.671,42.026
34.607,41.898
34.547,41.748
34.491,41.578
34.438,41.391
34.388,41.19
34.34,40.976
34.293,40.75
34.247,40.515
34.202,40.271
34.158,40.019
34.116,39.76
34.076,39.494
34.038,39.224
34.001,38.951
33.963,38.677
33.925,38.405
33.886,38.136
33.848,37.87
33.811,37.609
33.775,37.352
33.741,37.1
33.71,36.853
33.68,36.61
33.65,36.373
33.622,36.142
33.594,35.917
33.566,35.699
33.539,35.49
33.513,35.29
33.488,35.101
33.464,34.924
33.441,34.762
33.419,34.615
33.397,34.485
33.375,34.372
33.352,34.278
33.329,34.202
33.307,34.147
33.286,34.112
33.267,34.098
33.251,34.106
33.236,34.135
33.225,34.185
33.217,34.255
33.215,34.343
33.22,34.449
33.236,34.57
33.266,34.704
33.314,34.848
33.382,35
33.474,35.157
33.593,35.317
33.742,35.478
33.921,35.639
34.129,35.797
34.365,35.949
34.627,36.093
34.913,36.227
35.22,36.347
35.542,36.453
35.875,36.542
36.212,36.613
36.547,36.665
36.876,36.698
37.193,36.712
37.492,36.706
37.769,36.681
38.021,36.637
38.247,36.577
38.445,36.5
38.616,36.411
38.76,36.309
38.877,36.196
38.966,36.073
39.029,35.943
39.069,35.806
39.085,35.664
39.082,35.519
39.06,35.37
39.023,35.22
38.974,35.067
38.914,34.913
38.844,34.758
38.766,34.604
38.68,34.45
38.588,34.297
38.492,34.147
38.393,34
38.291,33.857
38.188,33.719
38.085,33.587
37.982,33.461
37.878,33.341
37.774,33.227
37.67,33.116
37.567,33.01
37.465,32.908
37.365,32.811
37.266,32.719
37.17,32.634
37.074,32.556
36.978,32.485
36.881,32.421
36.782,32.364
36.681,32.313
36.579,32.266
36.477,32.225
36.373,32.186
36.269,32.15
36.165,32.115
36.061,32.082
35.955,32.05
35.849,32.021
35.744,31.992
35.644,31.966
35.55,31.94
35.466,31.916
35.393,31.893
35.333,31.873
35.287,31.856
35.257,31.841
35.242,31.831
35.241,31.823
35.253,31.817
35.277,31.813
35.312,31.809
35.355,31.805
35.405,31.8
35.46,31.794
35.519,31.786
35.578,31.777
35.636,31.769
35.693,31.762
35.747,31.756
35.796,31.751
35.839,31.747
35.877,31.744
35.908,31.741
35.934,31.739
35.953,31.737
35.964,31.736
35.967,31.734
35.961,31.732
35.948,31.729
35.927,31.725
35.9,31.722
35.867,31.718
35.829,31.713
35.787,31.708
35.741,31.7
35.693,31.691
35.644,31.68
35.595,31.666
35.545,31.649
35.494,31.629
35.443,31.606
35.391,31.581
35.339,31.555
35.286,31.53
35.231,31.507
35.172,31.487
35.108,31.473
35.042,31.467
34.972,31.471
34.902,31.489
34.832,31.525
34.763,31.585
34.695,31.674
34.629,31.8
34.566,31.969
34.507,32.188
34.451,32.464
34.397,32.799
34.347,33.194
34.301,33.648
34.257,34.157
34.218,34.714
34.182,35.309
34.15,35.933
34.119,36.571
34.09,37.212
34.061,37.843
34.033,38.453
34.005,39.031
33.977,39.571
33.949,40.064
33.921,40.507
33.894,40.898
33.869,41.235
33.846,41.519
33.824,41.749
33.805,41.929
33.788,42.062
33.77,42.152
33.753,42.2
33.735,42.211
33.716,42.188
33.694,42.132
