Trial 1:0back,Trial 6:0back
39.615,31.529
39.502,31.511
39.393,31.489
39.286,31.467
39.18,31.443
39.073,31.42
38.965,31.397
38.856,31.374
38.743,31.355
38.628,31.339
38.51,31.329
38.39,31.326
38.27,31.33
38.15,31.345
38.032,31.374
37.918,31.42
37.808,31.486
37.704,31.577
37.606,31.697
37.514,31.849
37.43,32.039
37.352,32.268
37.282,32.539
37.219,32.853
37.164,33.209
37.118,33.61
37.079,34.05
37.049,34.528
37.024,35.036
37.006,35.568
36.993,36.116
36.985,36.671
36.981,37.225
36.98,37.772
36.982,38.305
36.985,38.816
36.988,39.3
36.992,39.753
36.994,40.17
36.993,40.547
36.989,40.883
36.98,41.174
36.967,41.421
36.948,41.625
36.923,41.787
36.891,41.91
36.853,41.996
36.808,42.05
36.756,42.073
36.698,42.07
36.634,42.044
36.565,41.999
36.492,41.938
36.416,41.865
36.337,41.781
36.254,41.688
36.168,41.589
36.08,41.485
35.99,41.377
35.898,41.265
35.804,41.149
35.708,41.03
35.612,40.91
35.515,40.796
35.417,40.692
35.32,40.597
35.223,40.51
35.126,40.428
35.03,40.348
34.933,40.269
34.838,40.188
34.743,40.104
34.649,40.018
34.557,39.927
34.466,39.833
34.378,39.736
34.293,39.635
34.211,39.531
34.133,39.423
34.057,39.312
33.983,39.199
33.911,39.086
33.839,38.973
33.769,38.863
33.699,38.757
33.63,38.653
33.561,38.553
33.494,38.458
33.429,38.368
33.366,38.282
33.305,38.2
33.246,38.121
33.189,38.047
33.136,37.976
33.085,37.909
33.038,37.844
32.994,37.781
32.954,37.721
32.916,37.664
32.882,37.608
32.85,37.556
32.82,37.508
32.793,37.464
32.766,37.423
32.74,37.384
32.715,37.347
32.691,37.31
32.666,37.273
32.641,37.234
32.614,37.196
32.586,37.158
32.555,37.122
32.522,37.089
32.487,37.059
32.452,37.029
32.417,37
32.383,36.971
32.35,36.941
32.32,36.908
32.292,36.873
32.267,36.835
32.246,36.795
32.228,36.753
32.213,36.707
32.201,36.659
32.191,36.607
32.183,36.549
32.177,36.484
32.171,36.412
32.166,36.333
32.162,36.25
32.157,36.163
32.153,36.074
32.147,35.982
32.14,35.889
32.131,35.797
32.119,35.706
32.104,35.615
32.087,35.525
32.068,35.434
32.047,35.344
32.027,35.255
32.006,35.167
31.986,35.081
31.966,34.996
31.947,34.912
31.927,34.829
31.907,34.747
31.887,34.669
31.865,34.593
31.843,34.52
31.822,34.449
31.804,34.378
31.788,34.307
31.776,34.234
31.766,34.161
31.759,34.088
31.752,34.015
31.746,33.943
31.741,33.873
31.735,33.805
31.731,33.738
31.726,33.673
31.722,33.608
31.716,33.545
31.709,33.484
31.701,33.425
31.689,33.368
31.675,33.311
31.659,33.252
31.642,33.191
31.626,33.128
31.61,33.062
31.596,32.995
31.583,32.926
31.572,32.857
31.56,32.788
31.55,32.719
31.54,32.652
31.532,32.585
31.528,32.52
31.528,32.456
31.536,32.393
31.553,32.332
31.583,32.273
31.629,32.216
31.694,32.162
31.783,32.111
31.9,32.064
32.049,32.024
32.235,31.99
32.464,31.961
32.741,31.937
33.07,31.916
33.458,31.899
33.907,31.885
34.42,31.872
34.994,31.86
35.625,31.847
36.304,31.834
37.018,31.814
37.755,31.783
38.5,31.742
39.238,31.693
39.956,31.642
40.64,31.593
41.278,31.551
41.861,31.518
42.38,31.495
42.83,31.482
43.209,31.479
43.514,31.484
43.746,31.498
43.908,31.517
44.003,31.539
44.037,31.564
44.017,31.587
43.951,31.607
43.845,31.624
43.707,31.635
43.543,31.64
43.36,31.639
43.162,31.631
42.954,31.617
42.741,31.597
42.525,31.574
42.31,31.547
42.096,31.516
41.885,31.483
41.679,31.448
41.478,31.41
41.282,31.37
41.093,31.329
40.908,31.287
40.73,31.246
40.557,31.204
40.39,31.164
40.231,31.124
40.08,31.082
39.937,31.04
39.802,30.996
39.675,30.952
39.556,30.909
39.444,30.868
39.337,30.83
39.234,30.793
39.134,30.759
39.034,30.728
38.935,30.698
38.834,30.672
38.732,30.648
38.626,30.627
38.519,30.609
38.41,30.594
38.3,30.581
38.19,30.57
38.079,30.562
37.97,30.559
37.864,30.563
37.761,30.58
37.664,30.614
37.572,30.671
37.485,30.757
37.402,30.879
37.325,31.041
37.253,31.251
37.188,31.51
37.128,31.819
37.077,32.178
37.033,32.586
36.998,33.038
36.972,33.53
36.955,34.058
36.945,34.614
36.943,35.191
36.947,35.781
36.956,36.377
36.967,36.97
36.98,37.549
36.993,38.106
37.006,38.632
37.017,39.12
37.029,39.567
37.041,39.969
37.054,40.325
37.067,40.633
37.082,40.895
37.096,41.111
37.108,41.284
37.119,41.417
37.126,41.513
37.13,41.577
37.13,41.611
37.124,41.618
37.112,41.603
37.094,41.568
37.07,41.516
37.039,41.45
37.003,41.373
36.963,41.289
36.918,41.199
36.87,41.105
36.818,41.008
36.764,40.909
36.707,40.808
36.648,40.707
36.587,40.607
36.526,40.511
36.463,40.421
36.399,40.337
36.335,40.261
36.269,40.19
36.2,40.126
36.13,40.067
36.056,40.012
35.98,39.961
35.902,39.91
35.822,39.86
35.741,39.807
35.66,39.753
35.578,39.695
35.497,39.634
35.416,39.569
35.334,39.5
35.252,39.428
35.17,39.352
35.087,39.273
35.003,39.191
34.918,39.105
34.832,39.013
34.746,38.915
34.658,38.813
34.57,38.707
34.481,38.599
34.392,38.489
34.304,38.378
34.217,38.266
34.131,38.154
34.047,38.042
33.965,37.933
33.885,37.827
33.807,37.725
33.732,37.627
33.66,37.535
33.591,37.45
33.523,37.372
33.457,37.302
33.392,37.239
33.329,37.184
33.267,37.137
33.207,37.097
33.149,37.066
33.094,37.043
33.042,37.026
32.993,37.013
32.948,37.004
32.907,36.994
32.87,36.983
32.837,36.968
32.809,36.948
32.784,36.925
32.761,36.898
32.741,36.869
32.721,36.838
32.7,36.806
32.678,36.772
32.655,36.735
32.63,36.694
32.603,36.652
32.576,36.607
32.548,36.561
32.519,36.514
32.491,36.466
32.462,36.417
32.434,36.367
32.407,36.316
32.381,36.263
32.357,36.206
32.334,36.146
32.313,36.08
32.294,36.01
32.276,35.936
32.261,35.858
32.249,35.777
32.239,35.692
32.233,35.604
32.23,35.513
32.229,35.421
32.231,35.326
32.235,35.231
32.239,35.134
32.244,35.036
32.247,34.94
32.249,34.845
32.249,34.752
32.246,34.661
32.241,34.572
32.234,34.486
32.225,34.404
32.215,34.324
32.205,34.245
32.194,34.168
32.182,34.09
32.171,34.01
32.16,33.926
32.149,33.841
32.137,33.754
32.127,33.668
32.117,33.583
32.108,33.501
32.1,33.421
32.095,33.344
32.091,33.268
32.09,33.196
32.09,33.126
32.092,33.06
32.096,32.998
32.1,32.942
32.106,32.89
32.114,32.842
32.122,32.8
32.131,32.763
32.139,32.732
32.146,32.706
32.152,32.685
32.158,32.667
32.164,32.65
32.173,32.635
32.187,32.618
32.208,32.601
32.24,32.58
32.285,32.557
32.347,32.531
32.428,32.503
32.532,32.473
32.662,32.443
32.824,32.412
33.022,32.382
33.264,32.353
33.556,32.327
33.905,32.305
34.315,32.286
34.788,32.271
35.322,32.26
35.913,32.252
36.554,32.249
37.234,32.25
37.941,32.254
38.66,32.259
39.378,32.263
40.078,32.267
40.747,32.269
41.374,32.271
41.947,32.27
42.459,32.267
42.903,32.261
43.277,32.253
43.579,32.243
43.81,32.23
43.975,32.215
44.078,32.198
44.121,32.181
44.112,32.165
44.055,32.151
43.958,32.138
43.825,32.128
43.665,32.12
43.483,32.115
43.283,32.111
43.071,32.109
42.851,32.104
42.626,32.095
42.401,32.082
42.178,32.065
41.958,32.044
41.743,32.018
41.532,31.989
41.327,31.955
41.127,31.918
40.933,31.876
40.744,31.831
40.561,31.785
40.383,31.736
40.21,31.688
40.042,31.639
39.878,31.591
39.721,31.543
39.571,31.495
39.428,31.446
39.292,31.398
39.164,31.351
39.041,31.305
38.926,31.261
38.816,31.218
38.711,31.176
38.61,31.134
38.512,31.093
38.414,31.052
38.316,31.011
38.216,30.971
38.113,30.932
38.006,30.894
37.897,30.858
37.786,30.825
37.673,30.796
37.56,30.772
37.448,30.753
37.339,30.738
37.233,30.728
37.133,30.72
37.038,30.717
36.95,30.718
36.867,30.725
36.792,30.741
36.722,30.77
36.66,30.816
36.604,30.886
36.555,30.986
36.514,31.123
36.48,31.304
36.454,31.534
36.433,31.816
36.418,32.152
36.407,32.541
36.4,32.979
36.397,33.462
36.395,33.987
36.393,34.546
36.391,35.133
36.386,35.738
36.378,36.353
36.365,36.966
36.348,37.569
36.326,38.153
36.299,38.71
36.267,39.232
36.231,39.714
36.191,40.15
36.146,40.537
36.097,40.872
36.041,41.158
35.981,41.397
35.916,41.592
35.846,41.745
35.773,41.858
35.695,41.935
35.612,41.977
35.525,41.988
35.435,41.969
35.342,41.926
35.247,41.86
35.151,41.777
35.054,41.68
34.958,41.573
34.862,41.457
34.767,41.335
34.673,41.209
34.578,41.082
34.484,40.956
34.391,40.833
34.298,40.713
34.206,40.596
34.114,40.482
34.024,40.368
33.934,40.254
33.845,40.139
33.757,40.024
33.67,39.907
33.585,39.788
33.501,39.668
33.419,39.546
33.341,39.423
33.265,39.298
33.193,39.173
33.125,39.048
33.061,38.925
33.001,38.803
32.945,38.683
32.89,38.566
32.838,38.449
32.787,38.333
32.737,38.215
32.688,38.096
32.641,37.975
32.595,37.852
32.55,37.73
32.508,37.609
32.468,37.491
32.43,37.377
32.393,37.268
32.358,37.165
32.323,37.067
32.289,36.976
32.255,36.89
32.222,36.812
32.189,36.742
32.157,36.678
32.124,36.622
32.092,36.572
32.06,36.529
32.029,36.493
31.997,36.464
31.966,36.44
31.936,36.421
31.906,36.407
31.878,36.395
31.852,36.385
31.828,36.375
31.807,36.365
31.788,36.352
31.772,36.336
31.758,36.315
31.745,36.289
31.733,36.258
31.722,36.223
31.71,36.186
31.699,36.145
31.686,36.102
31.673,36.055
31.659,36.006
31.645,35.955
31.63,35.901
31.614,35.846
31.598,35.791
31.581,35.739
31.563,35.691
31.543,35.646
31.52,35.604
31.495,35.564
31.468,35.526
31.441,35.489
31.415,35.452
31.392,35.414
31.371,35.371
31.353,35.324
31.339,35.272
31.329,35.213
31.323,35.15
31.321,35.08
31.322,35.005
31.327,34.924
31.334,34.835
31.342,34.74
31.35,34.638
31.357,34.531
31.361,34.42
31.361,34.308
31.357,34.194
31.35,34.081
31.339,33.971
31.325,33.865
31.311,33.764
31.294,33.668
31.278,33.578
31.26,33.495
31.242,33.418
31.225,33.348
31.208,33.284
31.192,33.226
31.178,33.173
31.164,33.125
31.152,33.08
31.14,33.036
31.129,32.992
31.119,32.946
31.108,32.897
31.098,32.847
31.089,32.794
31.079,32.74
31.07,32.684
31.061,32.625
31.052,32.566
31.042,32.507
31.032,32.449
31.022,32.392
31.013,32.337
31.006,32.284
31.004,32.235
31.007,32.19
31.019,32.15
31.042,32.113
31.08,32.081
31.136,32.054
31.214,32.031
31.317,32.011
31.45,31.995
31.616,31.979
31.819,31.964
32.061,31.949
32.344,31.933
32.671,31.917
33.044,31.899
33.465,31.879
33.936,31.857
34.458,31.835
35.028,31.814
35.644,31.795
36.297,31.778
36.979,31.762
37.676,31.749
38.376,31.735
39.065,31.721
39.729,31.706
40.356,31.689
40.935,31.669
41.456,31.648
41.912,31.626
42.299,31.602
42.613,31.578
42.853,31.554
43.022,31.53
43.123,31.508
43.159,31.49
43.138,31.474
43.067,31.461
42.952,31.451
42.801,31.441
42.623,31.434
42.424,31.428
42.21,31.424
41.985,31.422
41.753,31.42
41.518,31.418
41.284,31.417
41.053,31.417
40.829,31.417
40.613,31.417
40.405,31.417
40.204,31.416
40.009,31.413
39.819,31.409
39.633,31.403
39.45,31.397
39.269,31.392
39.091,31.387
38.914,31.382
38.739,31.378
38.567,31.373
38.399,31.367
38.235,31.358
38.077,31.347
37.924,31.334
37.778,31.317
37.638,31.296
37.504,31.269
37.377,31.238
37.257,31.204
37.144,31.169
37.036,31.135
36.934,31.104
36.836,31.077
36.741,31.053
36.648,31.032
36.559,31.014
36.474,30.998
36.393,30.986
36.318,30.978
36.249,30.979
36.187,30.992
36.134,31.022
36.089,31.077
36.052,31.162
36.024,31.286
36.004,31.453
35.991,31.669
35.986,31.937
35.986,32.259
35.992,32.634
36.002,33.061
36.017,33.535
36.035,34.052
36.057,34.605
36.081,35.186
36.106,35.786
36.132,36.394
36.156,36.999
36.176,37.592
36.193,38.163
36.205,38.707
36.211,39.215
36.212,39.683
36.208,40.107
36.198,40.486
36.182,40.817
36.16,41.101
36.132,41.339
36.098,41.533
36.06,41.685
36.016,41.798
35.968,41.875
35.915,41.92
35.856,41.934
35.793,41.922
35.725,41.886
35.653,41.828
35.578,41.752
35.5,41.66
35.42,41.554
35.339,41.439
35.257,41.315
35.173,41.185
35.088,41.05
35.001,40.912
34.912,40.771
34.821,40.628
34.729,40.484
34.637,40.338
34.545,40.191
34.454,40.042
34.364,39.892
34.276,39.74
34.189,39.587
34.103,39.433
34.019,39.279
33.937,39.126
33.857,38.976
33.781,38.831
33.709,38.691
33.641,38.558
33.577,38.431
33.515,38.31
33.456,38.196
33.399,38.088
33.344,37.983
33.291,37.882
33.241,37.783
33.193,37.689
33.146,37.598
33.1,37.512
33.055,37.428
33.011,37.347
32.967,37.268
32.923,37.191
32.881,37.116
32.84,37.042
32.802,36.97
32.766,36.898
32.733,36.829
32.703,36.762
32.674,36.7
32.647,36.643
32.621,36.593
32.595,36.548
32.571,36.509
32.548,36.476
32.526,36.448
32.505,36.423
32.484,36.401
32.462,36.382
32.44,36.366
32.418,36.353
32.397,36.346
32.377,36.343
32.358,36.344
32.34,36.348
32.325,36.354
32.311,36.362
32.298,36.37
32.287,36.377
32.277,36.382
32.267,36.383
32.257,36.382
32.248,36.377
32.239,36.37
32.231,36.359
32.225,36.343
32.219,36.322
32.215,36.294
32.211,36.259
32.206,36.215
32.202,36.164
32.198,36.104
32.194,36.037
32.191,35.965
32.189,35.888
32.189,35.808
32.189,35.725
32.189,35.637
32.189,35.544
32.188,35.447
32.185,35.347
32.181,35.246
32.176,35.144
32.171,35.042
32.166,34.943
32.162,34.846
32.16,34.753
32.157,34.664
32.155,34.579
32.152,34.499
32.149,34.423
32.145,34.352
32.142,34.284
32.138,34.219
32.135,34.155
32.132,34.093
32.129,34.032
32.126,33.973
32.12,33.913
32.113,33.855
32.103,33.796
32.09,33.737
32.076,33.677
32.061,33.617
32.043,33.556
32.025,33.495
32.005,33.434
31.985,33.373
31.965,33.313
31.946,33.253
31.929,33.194
31.915,33.137
31.908,33.08
31.91,33.026
31.924,32.974
31.953,32.925
32.001,32.879
32.071,32.836
32.168,32.795
32.294,32.754
32.453,32.713
32.646,32.671
32.877,32.629
33.148,32.587
33.463,32.545
33.826,32.504
34.238,32.465
34.702,32.427
35.216,32.392
35.778,32.361
36.38,32.332
37.015,32.305
37.671,32.281
38.336,32.259
38.996,32.237
39.639,32.213
40.252,32.187
40.823,32.157
41.344,32.124
41.807,32.088
42.206,32.05
42.539,32.012
42.804,31.973
43.002,31.935
43.136,31.9
43.21,31.87
43.228,31.847
43.196,31.832
43.12,31.822
43.007,31.816
42.862,31.813
42.692,31.812
42.501,31.811
42.295,31.811
42.077,31.81
41.851,31.807
41.621,31.802
41.388,31.795
41.155,31.785
40.925,31.771
40.7,31.752
40.482,31.73
40.271,31.706
40.07,31.681
39.877,31.656
39.694,31.631
39.52,31.608
39.355,31.586
39.199,31.568
39.05,31.551
38.908,31.537
38.771,31.523
38.64,31.51
38.513,31.497
38.389,31.486
38.267,31.477
38.146,31.471
38.027,31.473
37.909,31.485
37.791,31.514
37.674,31.562
37.556,31.637
37.44,31.744
37.323,31.888
37.208,32.074
37.095,32.304
36.984,32.581
36.878,32.906
36.777,33.275
36.682,33.686
36.594,34.133
36.513,34.612
36.44,35.116
36.375,35.638
36.318,36.172
36.269,36.708
36.228,37.239
36.195,37.757
36.17,38.256
36.151,38.727
36.14,39.166
36.135,39.566
36.136,39.923
36.141,40.235
36.15,40.501
36.161,40.723
36.173,40.901
36.184,41.039
36.193,41.139
36.2,41.203
36.203,41.236
36.204,41.241
36.203,41.224
36.198,41.188
36.19,41.135
36.178,41.067
36.161,40.987
36.139,40.897
36.11,40.798
36.076,40.691
36.037,40.577
35.993,40.457
35.946,40.332
35.896,40.201
35.844,40.066
35.789,39.928
35.732,39.788
35.673,39.646
35.612,39.504
35.549,39.363
35.483,39.225
35.414,39.091
35.342,38.959
35.267,38.831
35.189,38.706
35.109,38.585
35.029,38.466
34.95,38.35
34.871,38.237
34.795,38.127
34.721,38.019
34.65,37.913
34.582,37.81
34.518,37.708
34.457,37.607
34.401,37.505
34.348,37.401
34.299,37.294
34.253,37.184
34.209,37.072
34.168,36.958
34.128,36.844
34.09,36.732
34.053,36.625
34.017,36.524
33.983,36.431
33.951,36.344
33.92,36.266
33.889,36.196
33.857,36.136
33.823,36.086
33.787,36.046
33.75,36.017
33.712,35.996
33.675,35.985
33.638,35.982
33.603,35.986
33.567,35.995
33.532,36.008
33.497,36.023
33.46,36.039
33.423,36.053
33.386,36.065
33.349,36.073
33.314,36.078
33.28,36.078
33.249,36.074
33.219,36.066
33.192,36.054
33.165,36.039
33.139,36.019
33.113,35.994
33.088,35.965
33.064,35.931
33.041,35.891
33.02,35.847
33,35.798
32.982,35.744
32.967,35.687
32.952,35.627
32.939,35.566
32.926,35.503
32.914,35.439
32.902,35.371
32.89,35.301
32.879,35.227
32.868,35.15
32.856,35.07
32.845,34.988
32.835,34.905
32.824,34.824
32.814,34.744
32.803,34.666
32.791,34.589
32.777,34.513
32.762,34.437
32.746,34.361
32.73,34.284
32.714,34.207
32.699,34.129
32.686,34.051
32.674,33.974
32.664,33.898
32.654,33.825
32.643,33.752
32.632,33.681
32.62,33.61
32.608,33.539
32.596,33.467
32.585,33.394
32.575,33.32
32.567,33.246
32.559,33.171
32.551,33.096
32.541,33.023
32.529,32.952
32.514,32.884
32.495,32.818
32.474,32.756
32.451,32.696
32.426,32.639
32.401,32.584
32.375,32.53
32.348,32.476
32.32,32.422
32.291,32.369
32.261,32.318
32.231,32.269
32.202,32.224
32.174,32.184
32.147,32.147
32.123,32.115
32.102,32.087
32.085,32.063
32.074,32.041
32.072,32.02
32.082,32
32.108,31.977
32.154,31.952
32.225,31.925
32.326,31.897
32.459,31.869
32.629,31.841
32.838,31.814
33.089,31.789
33.385,31.766
33.73,31.746
34.128,31.728
34.582,31.713
35.093,31.702
35.658,31.696
36.274,31.695
36.931,31.7
37.619,31.708
38.326,31.72
39.037,31.735
39.738,31.751
40.415,31.767
41.055,31.782
41.647,31.794
42.18,31.801
42.648,31.803
43.047,31.8
43.374,31.792
43.63,31.78
43.817,31.763
43.938,31.745
43.998,31.725
44.004,31.706
43.962,31.687
43.877,31.669
43.757,31.652
43.609,31.636
43.439,31.622
43.251,31.61
43.052,31.598
42.844,31.587
42.631,31.575
42.415,31.563
42.198,31.55
41.98,31.536
41.765,31.522
41.552,31.506
41.342,31.49
41.138,31.474
40.941,31.458
40.752,31.442
40.573,31.426
40.403,31.41
40.245,31.393
40.098,31.377
39.963,31.362
39.839,31.349
39.726,31.338
39.622,31.328
39.526,31.32
39.437,31.314
39.352,31.311
39.271,31.315
39.191,31.327
39.112,31.346
39.032,31.371
38.951,31.408
38.868,31.465
38.782,31.552
38.693,31.677
38.6,31.85
38.502,32.076
38.401,32.36
38.296,32.703
38.189,33.104
38.08,33.558
37.971,34.059
37.864,34.601
37.758,35.172
37.657,35.764
37.56,36.364
37.47,36.963
37.386,37.547
37.309,38.109
37.239,38.64
37.176,39.132
37.12,39.58
37.069,39.98
37.022,40.33
36.98,40.629
36.941,40.878
36.905,41.079
36.873,41.236
36.844,41.351
36.816,41.43
36.789,41.476
36.763,41.496
36.735,41.494
36.706,41.474
36.673,41.438
36.638,41.389
36.597,41.326
36.553,41.254
36.503,41.172
36.448,41.082
36.389,40.985
36.327,40.884
36.26,40.779
36.191,40.672
36.119,40.564
36.044,40.455
35.965,40.347
35.883,40.239
35.797,40.131
35.707,40.023
35.614,39.916
35.518,39.809
35.421,39.705
35.323,39.602
35.225,39.501
35.127,39.402
35.03,39.305
34.932,39.211
34.835,39.12
34.739,39.031
34.643,38.943
34.547,38.858
34.452,38.774
34.358,38.691
34.266,38.609
34.176,38.524
34.088,38.437
34.002,38.345
33.918,38.248
33.835,38.148
33.753,38.046
33.673,37.944
33.595,37.842
33.519,37.742
33.446,37.644
33.376,37.55
33.309,37.458
33.244,37.369
33.181,37.283
33.119,37.201
33.059,37.126
33,37.057
32.942,36.994
32.885,36.938
32.83,36.888
32.777,36.846
32.727,36.81
32.679,36.781
32.633,36.757
32.588,36.738
32.545,36.724
32.502,36.711
32.459,36.7
32.415,36.691
32.371,36.682
32.328,36.671
32.284,36.658
32.242,36.641
32.2,36.619
32.159,36.593
32.12,36.562
32.081,36.526
32.044,36.485
32.01,36.44
31.977,36.391
31.947,36.337
31.919,36.279
31.895,36.217
31.874,36.15
31.855,36.08
31.838,36.009
31.822,35.938
31.806,35.867
31.791,35.796
31.776,35.726
31.762,35.655
31.748,35.584
31.734,35.512
31.721,35.438
31.708,35.364
31.695,35.288
31.682,35.211
31.669,35.132
31.657,35.052
31.644,34.971
31.632,34.89
31.62,34.808
31.608,34.727
31.596,34.645
31.583,34.564
31.571,34.485
31.56,34.408
31.552,34.334
31.544,34.263
31.538,34.196
31.532,34.131
31.527,34.07
31.522,34.009
31.515,33.947
31.508,33.883
31.499,33.817
31.488,33.748
31.477,33.677
31.465,33.605
31.454,33.531
31.443,33.457
31.433,33.386
31.424,33.316
31.416,33.25
31.41,33.187
31.406,33.127
31.404,33.072
31.402,33.021
31.402,32.977
31.402,32.937
31.402,32.901
31.401,32.869
31.398,32.841
31.392,32.817
31.384,32.796
31.372,32.775
31.357,32.754
31.339,32.732
31.319,32.706
31.297,32.677
31.275,32.645
31.254,32.61
31.234,32.573
31.217,32.536
31.202,32.5
31.189,32.466
31.179,32.435
31.172,32.407
31.169,32.381
31.173,32.357
31.186,32.333
31.211,32.311
31.251,32.29
31.311,32.271
31.394,32.255
31.503,32.241
31.641,32.228
31.813,32.217
32.019,32.205
32.263,32.193
32.546,32.178
32.869,32.161
33.236,32.14
33.647,32.116
34.105,32.087
34.609,32.055
35.158,32.021
35.75,31.987
36.377,31.954
37.03,31.924
37.698,31.898
38.368,31.877
39.028,31.86
39.666,31.848
40.269,31.839
40.827,31.833
41.331,31.83
41.772,31.827
42.148,31.822
42.454,31.815
42.691,31.805
42.86,31.792
42.964,31.777
43.008,31.759
42.995,31.74
42.934,31.721
42.831,31.701
42.693,31.684
42.526,31.668
42.336,31.655
42.129,31.644
41.91,31.634
41.683,31.626
41.451,31.618
41.218,31.609
40.987,31.599
40.758,31.587
40.534,31.572
40.315,31.556
40.104,31.538
39.899,31.516
39.703,31.492
39.514,31.465
39.334,31.437
39.16,31.411
38.993,31.388
38.832,31.37
38.678,31.362
38.53,31.366
38.39,31.387
38.256,31.431
38.13,31.503
38.01,31.607
37.896,31.75
37.787,31.936
37.681,32.168
37.579,32.449
37.478,32.777
37.379,33.149
37.28,33.562
37.181,34.013
37.083,34.495
36.985,35.003
36.886,35.528
36.789,36.064
36.694,36.602
36.602,37.134
36.514,37.653
36.431,38.152
36.352,38.626
36.278,39.067
36.21,39.474
36.147,39.841
36.092,40.168
36.044,40.454
36.004,40.701
35.973,40.909
35.951,41.081
35.935,41.218
35.927,41.323
35.924,41.399
35.925,41.449
35.931,41.475
35.939,41.478
35.948,41.461
35.959,41.424
35.968,41.37
35.976,41.3
35.982,41.216
35.984,41.122
35.983,41.02
35.978,40.915
35.967,40.81
35.95,40.706
35.928,40.604
35.901,40.506
35.869,40.413
35.832,40.324
35.792,40.24
35.747,40.16
35.699,40.084
35.646,40.012
35.59,39.94
35.529,39.869
35.465,39.797
35.399,39.723
35.33,39.646
35.259,39.568
35.186,39.489
35.113,39.41
35.037,39.332
34.96,39.254
34.881,39.174
34.8,39.092
34.717,39.005
34.633,38.912
34.548,38.813
34.463,38.708
34.378,38.599
34.294,38.485
34.211,38.368
34.13,38.25
34.05,38.131
33.971,38.014
33.893,37.899
33.816,37.788
33.739,37.681
33.663,37.579
33.588,37.483
33.515,37.394
33.443,37.311
33.374,37.235
33.309,37.164
33.246,37.099
33.186,37.04
33.129,36.987
33.075,36.94
33.022,36.899
32.973,36.866
32.927,36.838
32.883,36.816
32.842,36.796
32.803,36.778
32.765,36.761
32.728,36.744
32.692,36.728
32.657,36.712
32.623,36.698
32.589,36.684
32.556,36.669
32.524,36.653
32.492,36.634
32.461,36.611
32.431,36.585
32.4,36.554
32.37,36.518
32.341,36.476
32.312,36.429
32.285,36.375
32.259,36.316
32.235,36.251
32.212,36.179
32.191,36.1
32.172,36.016
32.155,35.927
32.14,35.835
32.128,35.741
32.119,35.647
32.112,35.554
32.108,35.463
32.106,35.375
32.105,35.289
32.105,35.205
32.106,35.124
32.105,35.044
32.105,34.966
32.103,34.89
32.099,34.817
32.092,34.748
32.084,34.681
32.073,34.617
32.061,34.555
32.048,34.493
32.032,34.433
32.015,34.373
31.998,34.312
31.98,34.251
31.962,34.189
31.945,34.126
31.928,34.064
31.913,34.002
31.898,33.943
31.885,33.886
31.873,33.833
31.862,33.784
31.853,33.739
31.846,33.698
31.84,33.659
31.837,33.622
31.835,33.588
31.834,33.557
31.833,33.53
31.832,33.507
31.831,33.487
31.83,33.47
31.828,33.453
31.825,33.436
31.822,33.418
31.818,33.396
31.813,33.371
31.806,33.341
31.797,33.307
31.786,33.27
31.772,33.23
31.756,33.187
31.738,33.141
31.718,33.092
31.698,33.041
31.677,32.988
31.655,32.932
31.633,32.875
31.609,32.817
31.583,32.76
31.553,32.702
31.52,32.64
31.484,32.573
31.449,32.501
31.417,32.426
31.39,32.351
31.373,32.279
31.368,32.213
31.379,32.154
31.411,32.103
31.466,32.059
31.548,32.022
31.66,31.989
31.804,31.959
31.982,31.932
32.196,31.905
32.447,31.878
32.735,31.85
33.06,31.822
33.423,31.793
33.824,31.761
34.263,31.727
34.742,31.691
35.259,31.656
35.814,31.621
36.401,31.589
37.013,31.559
37.642,31.533
38.277,31.509
38.906,31.488
39.517,31.469
40.1,31.451
40.645,31.433
41.141,31.416
41.582,31.399
41.961,31.383
42.276,31.369
42.524,31.356
42.707,31.343
42.827,31.329
42.887,31.314
42.892,31.298
42.847,31.282
42.758,31.266
42.631,31.251
42.471,31.238
42.285,31.228
42.077,31.22
41.853,31.215
41.617,31.209
41.374,31.203
41.128,31.196
40.882,31.188
40.641,31.18
40.405,31.172
40.177,31.164
39.958,31.156
39.748,31.149
39.548,31.146
39.357,31.149
39.175,31.161
39.003,31.186
38.838,31.229
38.68,31.296
38.529,31.394
38.383,31.526
38.242,31.699
38.105,31.915
37.974,32.176
37.847,32.485
37.725,32.841
37.608,33.243
37.496,33.687
37.389,34.17
37.286,34.684
37.188,35.222
37.093,35.778
37.002,36.343
36.912,36.909
36.826,37.466
36.744,38.006
36.665,38.52
36.591,39.003
36.523,39.448
36.461,39.853
36.407,40.214
36.36,40.53
36.321,40.8
36.291,41.026
36.27,41.21
36.257,41.354
36.253,41.463
36.257,41.539
36.269,41.585
36.286,41.603
36.308,41.597
36.334,41.57
36.365,41.523
36.399,41.46
36.436,41.384
36.475,41.296
36.514,41.201
36.552,41.099
36.588,40.994
36.621,40.887
36.65,40.779
36.675,40.671
36.695,40.564
36.711,40.461
36.722,40.36
36.725,40.262
36.719,40.166
36.702,40.07
36.673,39.976
36.634,39.882
36.585,39.788
36.528,39.693
36.463,39.598
36.39,39.502
36.31,39.405
36.223,39.307
36.131,39.209
36.035,39.111
35.936,39.012
35.834,38.914
35.731,38.815
35.626,38.716
35.521,38.616
35.416,38.515
35.311,38.41
35.207,38.303
35.103,38.194
35.001,38.085
34.9,37.978
34.801,37.874
34.702,37.775
34.605,37.68
34.507,37.591
34.41,37.507
34.312,37.428
34.214,37.355
34.119,37.291
34.026,37.246
33.936,37.227
33.852,37.232
33.771,37.257
33.694,37.295
33.619,37.338
33.547,37.38
33.477,37.414
33.409,37.437
33.343,37.447
33.281,37.443
33.223,37.426
33.169,37.396
33.119,37.354
33.072,37.304
33.029,37.248
32.989,37.187
32.952,37.125
32.918,37.066
32.886,37.009
32.858,36.958
32.832,36.912
32.808,36.869
32.787,36.83
32.768,36.791
32.751,36.752
32.736,36.712
32.723,36.669
32.713,36.622
32.705,36.571
32.699,36.516
32.694,36.457
32.69,36.394
32.686,36.327
32.683,36.256
32.682,36.182
32.681,36.102
32.682,36.018
32.685,35.929
32.688,35.838
32.692,35.744
32.695,35.648
32.697,35.548
32.698,35.446
32.699,35.342
32.7,35.235
32.701,35.127
32.704,35.016
32.709,34.905
32.715,34.794
32.722,34.686
32.73,34.581
32.737,34.48
32.743,34.382
32.749,34.287
32.753,34.196
32.757,34.109
32.761,34.027
32.765,33.95
32.769,33.878
32.773,33.809
32.777,33.745
32.779,33.684
32.779,33.627
32.777,33.571
32.771,33.519
32.763,33.472
32.752,33.429
32.738,33.389
32.722,33.35
32.704,33.312
32.685,33.273
32.665,33.231
32.643,33.188
32.619,33.142
32.595,33.094
32.57,33.042
32.545,32.989
32.521,32.933
32.498,32.877
32.476,32.82
32.455,32.764
32.435,32.709
32.415,32.655
32.396,32.602
32.376,32.55
32.356,32.498
32.336,32.446
32.316,32.395
32.296,32.344
32.277,32.295
32.26,32.247
32.244,32.201
32.232,32.159
32.222,32.119
32.216,32.083
32.216,32.051
32.221,32.023
32.236,31.999
32.262,31.978
32.304,31.959
32.364,31.941
32.447,31.923
32.556,31.906
32.696,31.889
32.869,31.872
33.079,31.855
33.328,31.836
33.618,31.816
33.952,31.793
34.33,31.768
34.756,31.741
35.23,31.711
35.751,31.678
36.316,31.644
36.921,31.61
37.558,31.577
38.217,31.547
38.885,31.521
39.551,31.5
40.201,31.483
40.823,31.472
41.406,31.464
41.939,31.458
42.416,31.454
42.83,31.45
43.178,31.445
43.458,31.441
43.669,31.436
43.814,31.43
43.895,31.423
43.918,31.415
43.888,31.406
43.81,31.395
43.691,31.384
43.539,31.371
43.359,31.359
43.158,31.345
42.941,31.333
42.715,31.32
42.483,31.308
42.25,31.298
42.017,31.289
41.789,31.282
41.566,31.277
41.351,31.274
41.144,31.272
40.947,31.271
40.758,31.271
40.577,31.273
40.404,31.278
40.237,31.288
40.078,31.306
39.924,31.336
39.776,31.381
39.634,31.447
39.497,31.539
39.364,31.663
39.237,31.821
39.115,32.018
38.998,32.254
38.886,32.531
38.778,32.85
38.674,33.21
38.572,33.61
38.474,34.047
38.378,34.516
38.283,35.014
38.188,35.532
38.092,36.063
37.997,36.599
37.904,37.129
37.817,37.647
37.736,38.146
37.66,38.619
37.59,39.061
37.525,39.468
37.465,39.836
37.408,40.165
37.354,40.454
37.302,40.703
37.253,40.914
37.205,41.088
37.158,41.224
37.113,41.324
37.069,41.392
37.028,41.429
36.989,41.439
36.953,41.424
36.921,41.387
36.895,41.331
36.872,41.26
36.854,41.176
36.84,41.081
36.828,40.977
36.819,40.865
36.812,40.747
36.807,40.624
36.804,40.499
36.801,40.373
36.798,40.247
36.792,40.12
36.783,39.992
36.767,39.864
36.745,39.736
36.715,39.609
36.677,39.482
36.632,39.359
36.58,39.238
36.521,39.122
36.456,39.009
36.386,38.899
36.31,38.792
36.229,38.687
36.145,38.585
36.058,38.485
35.969,38.386
35.878,38.288
35.786,38.19
35.693,38.089
35.6,37.985
35.507,37.877
35.415,37.767
35.324,37.655
35.235,37.543
35.147,37.433
35.061,37.326
34.976,37.223
34.894,37.125
34.814,37.032
34.736,36.945
34.661,36.864
34.589,36.789
34.519,36.72
34.45,36.658
34.383,36.604
34.316,36.557
34.25,36.519
34.184,36.487
34.118,36.461
34.053,36.441
33.989,36.426
33.926,36.415
33.864,36.408
33.804,36.404
33.745,36.402
33.689,36.401
33.636,36.401
33.585,36.402
33.539,36.404
33.495,36.406
33.456,36.408
33.419,36.411
33.384,36.414
33.351,36.418
33.318,36.419
33.286,36.418
33.254,36.412
33.224,36.402
33.195,36.388
33.168,36.369
33.143,36.344
33.119,36.313
33.095,36.276
33.072,36.233
33.049,36.183
33.027,36.126
33.006,36.063
32.985,35.992
32.966,35.915
32.948,35.832
32.931,35.747
32.915,35.659
32.899,35.571
32.883,35.481
32.867,35.391
32.851,35.3
32.836,35.21
32.821,35.121
32.807,35.034
32.794,34.95
32.781,34.869
32.766,34.793
32.747,34.721
32.724,34.652
32.697,34.588
32.665,34.525
32.631,34.463
32.595,34.401
32.558,34.338
32.522,34.273
32.486,34.204
32.452,34.13
32.421,34.051
32.393,33.968
32.368,33.883
32.346,33.796
32.326,33.709
32.309,33.622
32.293,33.537
32.28,33.453
32.269,33.374
32.258,33.299
32.249,33.228
32.241,33.162
32.233,33.101
32.224,33.045
32.215,32.994
32.205,32.947
32.193,32.902
32.18,32.858
32.164,32.814
32.146,32.772
32.127,32.731
32.107,32.689
32.085,32.646
32.062,32.603
32.038,32.56
32.014,32.516
31.988,32.473
31.961,32.431
31.933,32.388
31.906,32.347
31.879,32.309
31.855,32.274
31.832,32.245
31.811,32.221
31.793,32.202
31.778,32.187
31.767,32.177
31.76,32.169
31.757,32.163
31.761,32.157
31.772,32.153
31.794,32.148
31.83,32.144
31.884,32.14
31.959,32.135
32.061,32.128
32.191,32.117
32.354,32.104
32.553,32.087
32.79,32.07
33.067,32.051
33.387,32.031
33.753,32.01
34.167,31.99
34.628,31.971
35.137,31.953
35.692,31.937
36.286,31.921
36.915,31.907
37.569,31.895
38.237,31.883
38.907,31.873
39.566,31.862
40.201,31.85
40.799,31.838
41.349,31.824
41.843,31.81
42.275,31.795
42.64,31.779
42.935,31.761
43.161,31.742
43.317,31.719
43.409,31.694
43.439,31.664
43.415,31.63
43.341,31.593
43.225,31.553
43.073,31.514
42.893,31.478
42.692,31.447
42.477,31.423
42.252,31.408
42.024,31.403
41.796,31.41
41.569,31.431
41.347,31.466
41.13,31.518
40.92,31.589
40.717,31.685
40.521,31.809
40.333,31.966
40.152,32.16
39.976,32.394
39.808,32.667
39.646,32.98
39.492,33.331
39.345,33.72
39.207,34.142
39.076,34.593
38.953,35.068
38.837,35.562
38.728,36.068
38.624,36.58
38.525,37.091
38.429,37.592
38.336,38.076
38.244,38.536
38.152,38.966
38.059,39.363
37.964,39.724
37.867,40.046
37.766,40.328
37.664,40.57
37.561,40.771
37.458,40.932
37.354,41.057
37.251,41.148
37.149,41.208
37.049,41.24
36.953,41.247
36.861,41.235
36.775,41.209
36.696,41.169
36.623,41.117
36.559,41.053
36.501,40.977
36.451,40.891
36.407,40.794
36.37,40.687
36.337,40.572
36.309,40.449
36.285,40.32
36.265,40.186
36.248,40.05
36.233,39.912
36.22,39.774
36.209,39.637
36.198,39.501
36.187,39.368
36.175,39.238
36.161,39.11
36.146,38.986
36.128,38.864
36.108,38.746
36.086,38.632
36.061,38.521
36.034,38.412
36.004,38.303
35.969,38.192
35.93,38.08
35.885,37.967
35.836,37.853
35.783,37.74
35.724,37.627
35.662,37.515
35.595,37.404
35.524,37.293
35.451,37.185
35.376,37.08
35.298,36.978
35.221,36.883
35.142,36.794
35.063,36.713
34.983,36.643
34.9,36.583
34.816,36.535
34.729,36.497
34.64,36.47
34.55,36.454
34.459,36.449
34.368,36.454
34.277,36.467
34.186,36.489
34.095,36.518
34.005,36.552
33.914,36.589
33.824,36.627
33.735,36.663
33.648,36.694
33.563,36.719
33.481,36.738
33.402,36.75
33.328,36.754
33.256,36.751
33.187,36.739
33.121,36.72
33.056,36.694
32.994,36.662
32.934,36.624
32.877,36.582
32.823,36.534
32.772,36.482
32.726,36.428
32.684,36.372
32.644,36.317
32.607,36.262
32.573,36.208
32.54,36.156
32.507,36.107
32.476,36.061
32.444,36.018
32.408,35.975
32.368,35.933
32.324,35.889
32.277,35.842
32.229,35.792
32.181,35.736
32.135,35.676
32.092,35.609
32.052,35.537
32.017,35.46
31.986,35.377
31.96,35.29
31.938,35.197
31.919,35.099
31.905,34.997
31.893,34.894
31.884,34.789
31.877,34.685
31.872,34.581
31.868,34.479
31.865,34.381
31.863,34.286
31.862,34.196
31.861,34.112
31.861,34.035
31.861,33.964
31.86,33.901
31.858,33.843
31.854,33.791
31.849,33.743
31.843,33.697
31.838,33.652
31.833,33.607
31.829,33.561
31.826,33.513
31.825,33.462
31.825,33.408
31.825,33.35
31.824,33.289
31.82,33.225
31.814,33.16
31.806,33.094
31.795,33.028
31.782,32.962
31.767,32.897
31.752,32.833
31.736,32.773
31.718,32.718
31.7,32.668
31.68,32.623
31.659,32.583
31.638,32.549
31.617,32.519
31.597,32.492
31.577,32.467
31.559,32.443
31.541,32.422
31.523,32.402
31.504,32.384
31.484,32.37
31.464,32.358
31.443,32.347
31.423,32.338
31.407,32.33
31.394,32.324
31.388,32.32
31.388,32.317
31.396,32.318
31.414,32.321
31.445,32.328
31.494,32.336
31.565,32.344
31.661,32.352
31.788,32.357
31.949,32.361
32.145,32.363
32.377,32.36
32.646,32.352
32.952,32.338
33.292,32.318
33.668,32.294
34.077,32.268
34.52,32.241
34.994,32.218
35.496,32.2
36.022,32.192
36.565,32.2
37.119,32.228
37.677,32.279
38.228,32.357
38.764,32.466
39.274,32.611
39.75,32.794
40.184,33.019
40.57,33.288
40.903,33.602
41.179,33.96
41.396,34.361
41.555,34.801
41.656,35.273
41.702,35.772
41.697,36.289
41.646,36.818
41.556,37.349
41.433,37.876
41.281,38.392
41.105,38.889
40.913,39.362
40.707,39.806
40.494,40.218
40.276,40.594
40.056,40.934
39.837,41.236
39.621,41.5
39.408,41.725
39.199,41.912
38.995,42.061
38.797,42.173
38.604,42.25
38.417,42.295
38.237,42.311
38.062,42.3
37.894,42.265
37.732,42.21
37.578,42.136
37.431,42.048
37.292,41.947
37.159,41.836
37.033,41.717
36.914,41.592
36.799,41.461
36.689,41.328
36.581,41.194
36.476,41.06
36.37,40.927
36.265,40.796
36.159,40.667
36.053,40.54
35.948,40.413
35.847,40.287
35.751,40.163
35.662,40.04
35.58,39.92
35.507,39.802
35.443,39.686
35.386,39.572
35.337,39.462
35.295,39.354
35.26,39.249
35.233,39.143
35.213,39.036
35.2,38.926
35.194,38.811
35.193,38.694
35.196,38.573
35.203,38.45
35.211,38.326
35.221,38.201
35.232,38.078
35.245,37.957
35.259,37.839
35.274,37.726
35.288,37.617
35.301,37.513
35.311,37.414
35.319,37.322
35.323,37.236
35.324,37.159
35.321,37.089
35.314,37.028
35.303,36.974
35.288,36.928
35.269,36.89
35.247,36.858
35.221,36.83
35.191,36.806
35.157,36.784
35.119,36.765
35.076,36.745
35.028,36.724
34.976,36.702
34.919,36.677
34.857,36.652
34.792,36.627
34.724,36.601
34.653,36.575
34.58,36.548
34.505,36.518
34.429,36.485
34.353,36.448
34.277,36.408
34.203,36.365
34.129,36.321
34.058,36.276
33.988,36.23
33.919,36.183
33.852,36.135
33.786,36.084
33.72,36.03
33.655,35.97
33.592,35.905
33.53,35.836
33.471,35.762
33.415,35.684
33.362,35.602
33.313,35.518
33.266,35.432
33.221,35.345
33.178,35.259
33.137,35.173
33.098,35.087
33.059,35.002
33.022,34.918
32.985,34.837
32.949,34.76
32.913,34.686
32.878,34.615
32.843,34.547
32.813,34.481
32.789,34.419
32.77,34.357
32.754,34.297
32.738,34.238
32.721,34.178
32.7,34.119
32.674,34.058
32.642,33.997
32.604,33.935
32.56,33.87
32.51,33.804
32.456,33.735
32.399,33.664
32.34,33.59
32.282,33.515
32.227,33.439
32.175,33.364
32.128,33.29
32.086,33.218
32.051,33.149
32.021,33.083
31.998,33.022
31.981,32.965
31.969,32.915
31.964,32.871
31.962,32.833
31.965,32.801
31.971,32.772
31.98,32.745
31.99,32.72
32,32.695
32.008,32.67
32.015,32.642
32.019,32.612
32.021,32.579
32.02,32.542
32.016,32.502
32.01,32.457
32.002,32.408
31.993,32.357
31.983,32.305
31.973,32.253
31.962,32.204
31.95,32.159
31.938,32.117
31.927,32.081
31.915,32.047
31.903,32.011
31.891,31.973
31.881,31.933
31.872,31.893
31.866,31.854
31.863,31.817
31.862,31.785
31.863,31.757
31.866,31.734
31.869,31.716
31.871,31.703
31.874,31.695
31.875,31.692
31.875,31.694
31.876,31.7
31.879,31.709
31.885,31.719
31.898,31.73
31.919,31.74
31.952,31.749
32,31.755
32.066,31.759
32.153,31.762
32.266,31.764
32.409,31.765
32.585,31.764
32.795,31.76
33.042,31.751
33.326,31.739
33.644,31.724
33.996,31.705
34.378,31.684
34.788,31.661
35.222,31.638
35.678,31.616
36.152,31.596
36.64,31.578
37.137,31.563
37.638,31.551
38.135,31.543
38.621,31.539
39.091,31.541
39.536,31.55
39.95,31.57
40.325,31.604
40.657,31.656
40.941,31.733
41.175,31.839
41.357,31.98
41.488,32.161
41.569,32.384
41.601,32.652
41.588,32.968
41.533,33.33
41.443,33.739
41.321,34.189
41.172,34.678
41.003,35.199
40.817,35.745
40.619,36.31
40.413,36.884
40.203,37.458
39.99,38.025
39.778,38.575
39.568,39.104
39.36,39.605
39.154,40.074
38.951,40.504
38.753,40.892
38.559,41.234
38.369,41.53
38.182,41.778
38.001,41.981
37.826,42.139
37.656,42.257
37.494,42.337
37.337,42.384
37.187,42.404
37.043,42.402
36.903,42.381
36.768,42.345
36.636,42.296
36.509,42.237
36.386,42.17
36.268,42.095
36.153,42.013
36.044,41.924
35.938,41.829
35.836,41.729
35.739,41.625
35.647,41.519
35.561,41.412
35.482,41.304
35.411,41.196
35.348,41.089
35.296,40.984
35.254,40.882
35.224,40.784
35.205,40.689
35.198,40.598
35.203,40.51
35.22,40.425
35.246,40.341
35.28,40.259
35.32,40.178
35.364,40.098
35.41,40.017
35.455,39.937
35.5,39.855
35.544,39.773
35.587,39.689
35.627,39.602
35.665,39.513
35.698,39.419
35.727,39.321
35.751,39.218
35.771,39.109
35.785,38.994
35.794,38.875
35.798,38.752
35.795,38.627
35.786,38.502
35.77,38.379
35.747,38.261
35.718,38.148
35.683,38.043
35.645,37.947
35.605,37.86
35.563,37.783
35.519,37.714
35.473,37.654
35.424,37.601
35.372,37.555
35.317,37.517
35.26,37.485
35.199,37.46
35.135,37.439
35.068,37.423
34.999,37.411
34.928,37.403
34.857,37.398
34.786,37.392
34.716,37.384
34.647,37.372
34.578,37.356
34.508,37.334
34.438,37.307
34.368,37.274
34.298,37.235
34.229,37.192
34.163,37.146
34.099,37.096
34.038,37.043
33.982,36.986
33.928,36.925
33.877,36.861
33.828,36.793
33.78,36.723
33.732,36.651
33.686,36.578
33.64,36.503
33.595,36.428
33.553,36.353
33.512,36.277
33.472,36.2
33.432,36.121
33.392,36.04
33.35,35.957
33.308,35.872
33.265,35.786
33.223,35.699
33.182,35.613
33.143,35.526
33.106,35.439
33.072,35.352
33.039,35.263
33.009,35.173
32.98,35.08
32.954,34.987
32.93,34.892
32.909,34.798
32.89,34.705
32.873,34.615
32.858,34.525
32.843,34.437
32.828,34.351
32.814,34.267
32.801,34.186
32.789,34.108
32.778,34.033
32.769,33.961
32.762,33.892
32.756,33.826
32.753,33.763
32.751,33.703
32.749,33.644
32.748,33.588
32.748,33.534
32.748,33.483
32.749,33.433
32.752,33.384
32.755,33.335
32.76,33.285
32.765,33.234
32.771,33.183
32.777,33.132
32.782,33.081
32.788,33.03
32.793,32.979
32.797,32.93
32.8,32.883
32.802,32.837
32.804,32.791
32.806,32.745
32.809,32.698
32.815,32.651
32.825,32.606
32.842,32.561
32.869,32.519
32.91,32.479
32.966,32.443
33.042,32.412
33.14,32.384
33.265,32.36
33.418,32.338
33.603,32.318
33.821,32.3
34.074,32.281
34.363,32.263
34.687,32.243
35.046,32.221
35.441,32.197
35.869,32.172
36.33,32.145
36.822,32.117
37.34,32.088
37.879,32.059
38.432,32.031
38.99,32.002
39.544,31.974
40.084,31.946
40.6,31.919
41.082,31.894
41.521,31.87
41.911,31.85
42.245,31.831
42.521,31.815
42.738,31.801
42.894,31.787
42.994,31.773
43.039,31.759
43.034,31.744
42.985,31.728
42.898,31.711
42.779,31.693
42.634,31.676
42.469,31.659
42.289,31.645
42.097,31.635
41.898,31.627
41.696,31.62
41.494,31.612
41.293,31.603
41.096,31.59
40.904,31.572
40.715,31.551
40.531,31.526
40.351,31.499
40.175,31.47
40.003,31.441
39.836,31.412
39.674,31.385
39.517,31.361
39.367,31.341
39.222,31.328
39.083,31.322
38.948,31.323
38.819,31.333
38.694,31.355
38.572,31.393
38.453,31.45
38.336,31.532
38.22,31.643
38.105,31.788
37.99,31.972
37.875,32.2
37.759,32.473
37.642,32.794
37.525,33.162
37.409,33.578
37.294,34.036
37.182,34.534
37.073,35.066
36.971,35.625
36.876,36.204
36.789,36.793
36.711,37.384
36.643,37.969
36.584,38.538
36.534,39.086
36.492,39.605
36.457,40.091
36.43,40.54
36.409,40.947
36.394,41.309
36.384,41.625
36.378,41.894
36.376,42.117
36.377,42.295
36.38,42.431
36.384,42.529
36.388,42.593
36.391,42.625
36.393,42.63
36.395,42.611
36.394,42.572
36.391,42.517
36.385,42.449
36.377,42.369
36.366,42.279
36.352,42.179
36.335,42.072
36.314,41.957
36.289,41.836
36.259,41.711
36.225,41.584
36.185,41.455
36.139,41.325
36.088,41.197
36.032,41.07
35.97,40.948
35.904,40.829
35.834,40.715
35.76,40.605
35.685,40.5
35.609,40.4
35.533,40.306
35.458,40.214
35.383,40.125
35.308,40.037
35.231,39.948
35.153,39.857
35.074,39.765
34.994,39.671
34.913,39.573
34.833,39.472
34.754,39.364
34.676,39.253
34.598,39.137
34.522,39.018
34.446,38.894
34.371,38.768
34.298,38.641
34.227,38.512
34.158,38.385
34.094,38.259
34.033,38.137
33.974,38.019
33.919,37.909
33.866,37.807
33.814,37.713
33.764,37.629
33.714,37.553
33.664,37.486
33.614,37.427
33.566,37.375
33.519,37.33
33.473,37.29
33.429,37.255
33.385,37.222
33.342,37.191
33.299,37.163
33.255,37.136
33.213,37.111
33.172,37.087
33.131,37.062
33.093,37.038
33.057,37.013
33.022,36.989
32.99,36.965
32.961,36.94
32.933,36.915
32.908,36.89
32.884,36.864
32.861,36.837
32.84,36.808
32.82,36.776
32.802,36.739
32.786,36.698
32.771,36.65
32.758,36.596
32.748,36.536
32.74,36.468
32.734,36.393
32.729,36.313
32.727,36.227
32.725,36.138
32.724,36.047
32.723,35.955
32.721,35.863
32.716,35.769
32.71,35.675
32.702,35.58
32.691,35.486
32.679,35.392
32.664,35.299
32.648,35.207
32.629,35.116
32.609,35.028
32.588,34.941
32.567,34.856
32.546,34.771
32.524,34.686
32.504,34.604
32.485,34.522
32.468,34.443
32.455,34.363
32.446,34.283
32.442,34.204
32.445,34.125
32.458,34.048
32.483,33.974
32.522,33.902
32.582,33.832
32.665,33.766
32.777,33.704
32.921,33.646
33.1,33.591
33.316,33.538
33.573,33.484
33.87,33.432
34.211,33.379
34.596,33.328
35.027,33.278
35.502,33.229
36.021,33.181
36.579,33.134
37.171,33.09
37.789,33.047
38.425,33.006
39.066,32.966
39.703,32.926
40.323,32.886
40.914,32.848
41.467,32.809
41.972,32.771
42.422,32.731
42.811,32.69
43.136,32.648
43.395,32.605
43.588,32.562
43.72,32.517
43.793,32.472
43.814,32.427
43.788,32.385
43.722,32.346
43.621,32.311
43.492,32.278
43.341,32.249
43.175,32.221
42.998,32.196
42.815,32.174
42.628,32.151
42.442,32.129
42.258,32.105
42.08,32.078
41.907,32.05
41.741,32.02
41.582,31.988
41.427,31.957
41.278,31.926
41.134,31.897
40.995,31.87
40.861,31.845
40.733,31.821
40.609,31.797
40.49,31.772
40.374,31.745
40.262,31.718
40.153,31.691
40.046,31.664
39.941,31.636
39.836,31.609
39.732,31.583
39.627,31.559
39.52,31.538
39.411,31.52
39.3,31.504
39.187,31.488
39.071,31.472
38.952,31.455
38.831,31.437
38.708,31.418
38.583,31.398
38.458,31.378
38.332,31.358
38.208,31.338
38.085,31.318
37.965,31.298
37.849,31.278
37.738,31.26
37.634,31.242
37.538,31.227
37.45,31.213
37.372,31.199
37.302,31.184
37.24,31.169
37.185,31.154
37.137,31.14
37.094,31.127
37.056,31.114
37.021,31.102
36.99,31.09
36.962,31.078
36.936,31.065
36.912,31.051
36.89,31.036
36.869,31.018
36.849,31.002
36.829,30.99
36.808,30.987
36.785,30.996
36.758,31.022
36.728,31.07
36.691,31.146
36.648,31.257
36.6,31.41
36.547,31.607
36.49,31.853
36.43,32.151
36.367,32.502
36.302,32.905
36.235,33.357
36.167,33.854
36.097,34.39
36.025,34.958
35.95,35.55
35.874,36.157
35.795,36.769
35.714,37.378
35.634,37.975
35.553,38.551
35.472,39.099
35.392,39.613
35.312,40.088
35.232,40.52
35.151,40.905
35.069,41.241
34.984,41.527
34.897,41.762
34.809,41.949
34.72,42.09
34.632,42.187
34.544,42.244
34.459,42.268
34.376,42.263
34.295,42.236
34.217,42.189
34.141,42.128
34.068,42.053
33.997,41.968
33.929,41.873
33.864,41.77
33.802,41.661
33.743,41.546
33.686,41.424
33.63,41.299
33.575,41.17
33.521,41.04
33.469,40.909
33.418,40.778
33.369,40.648
33.32,40.52
33.273,40.396
33.226,40.276
33.179,40.161
33.131,40.052
33.084,39.95
33.037,39.852
32.99,39.758
32.946,39.667
32.903,39.578
32.862,39.49
32.822,39.402
32.785,39.312
32.748,39.22
32.713,39.126
32.679,39.029
32.646,38.926
32.615,38.819
32.585,38.706
32.557,38.589
32.532,38.467
32.508,38.341
32.486,38.212
32.466,38.081
32.446,37.948
32.428,37.818
32.41,37.691
32.395,37.57
32.381,37.456
32.368,37.349
32.357,37.251
32.347,37.16
32.336,37.078
32.325,37.005
32.312,36.942
32.3,36.888
32.287,36.844
32.276,36.811
32.266,36.788
32.257,36.775
32.25,36.772
32.243,36.777
32.238,36.786
32.232,36.799
32.225,36.814
32.216,36.828
32.206,36.84
32.193,36.848
32.18,36.852
32.164,36.854
32.148,36.854
32.129,36.849
32.108,36.839
32.085,36.819
32.061,36.79
32.036,36.749
32.012,36.698
31.991,36.638
31.976,36.568
31.968,36.492
31.972,36.409
31.991,36.322
32.03,36.232
32.091,36.141
32.18,36.049
32.299,35.958
32.453,35.866
32.645,35.776
32.877,35.686
33.155,35.598
33.479,35.511
33.854,35.426
34.28,35.343
34.757,35.261
35.286,35.18
35.861,35.099
36.478,35.016
37.128,34.929
37.801,34.837
38.485,34.74
39.166,34.639
39.832,34.535
40.471,34.429
41.072,34.323
41.624,34.216
42.119,34.109
42.551,34.002
42.916,33.897
43.213,33.792
43.442,33.691
43.606,33.593
43.71,33.502
43.759,33.417
43.757,33.34
43.712,33.268
43.629,33.2
43.516,33.134
43.378,33.071
43.222,33.011
43.053,32.952
42.876,32.893
42.695,32.834
42.512,32.774
42.332,32.715
42.154,32.656
41.981,32.597
41.813,32.538
41.65,32.479
41.493,32.421
41.342,32.364
41.197,32.31
41.058,32.258
40.924,32.207
40.796,32.158
40.672,32.111
40.551,32.065
40.434,32.02
40.319,31.978
40.208,31.938
40.099,31.904
39.993,31.878
39.888,31.861
39.784,31.85
39.679,31.843
39.573,31.835
39.464,31.827
39.353,31.816
39.239,31.802
39.122,31.786
39.002,31.768
38.88,31.748
38.756,31.726
38.631,31.703
38.504,31.679
38.377,31.654
38.251,31.627
38.126,31.598
38.005,31.567
37.888,31.534
37.775,31.502
37.667,31.471
37.565,31.44
37.47,31.409
37.38,31.381
37.297,31.356
37.221,31.335
37.15,31.318
37.086,31.304
37.027,31.291
36.974,31.28
36.926,31.27
36.883,31.26
36.844,31.25
36.81,31.238
36.779,31.226
36.752,31.213
36.728,31.2
36.705,31.188
36.685,31.177
36.666,31.165
36.646,31.153
36.627,31.139
36.604,31.123
36.578,31.107
36.546,31.089
36.507,31.07
36.462,31.05
36.41,31.03
36.351,31.012
36.286,30.995
36.216,30.981
36.143,30.969
36.068,30.962
35.99,30.957
35.911,30.955
35.83,30.956
35.748,30.956
35.663,30.955
35.577,30.95
35.489,30.943
35.4,30.932
35.309,30.919
35.217,30.902
35.124,30.883
35.032,30.863
34.941,30.843
34.851,30.822
34.764,30.801
34.678,30.778
34.595,30.754
34.513,30.731
34.431,30.709
34.351,30.691
34.271,30.676
34.191,30.666
34.113,30.661
34.034,30.666
33.956,30.681
33.878,30.712
33.8,30.761
33.723,30.835
33.647,30.939
33.573,31.079
33.502,31.26
33.433,31.486
33.368,31.759
33.306,32.081
33.246,32.452
33.188,32.872
33.13,33.34
33.074,33.852
33.02,34.402
32.969,34.983
32.92,35.586
32.874,36.203
32.831,36.821
32.791,37.432
32.752,38.025
32.712,38.589
32.673,39.118
32.633,39.607
32.594,40.05
32.556,40.446
32.519,40.794
32.484,41.092
32.45,41.343
32.417,41.549
32.383,41.711
32.349,41.834
32.315,41.919
32.282,41.97
32.25,41.988
32.219,41.978
32.191,41.943
32.164,41.886
32.139,41.808
32.113,41.714
32.087,41.606
32.06,41.487
32.033,41.359
32.007,41.224
31.982,41.085
31.959,40.944
31.94,40.801
31.924,40.658
31.911,40.516
31.902,40.376
31.895,40.237
31.891,40.1
31.889,39.964
31.889,39.83
31.89,39.697
31.893,39.568
31.895,39.442
31.897,39.319
31.897,39.199
31.895,39.083
31.89,38.969
31.882,38.858
31.872,38.748
31.859,38.639
31.845,38.528
31.831,38.416
31.816,38.3
31.8,38.182
31.782,38.06
31.763,37.936
31.741,37.81
31.718,37.685
31.693,37.563
31.667,37.446
31.642,37.335
31.618,37.229
31.595,37.129
31.574,37.035
31.554,36.944
31.535,36.86
31.517,36.781
31.5,36.709
31.484,36.643
31.47,36.586
31.46,36.538
31.454,36.498
31.454,36.466
31.463,36.441
31.484,36.42
31.518,36.405
31.57,36.394
31.643,36.388
31.741,36.387
31.868,36.39
32.028,36.396
32.224,36.406
32.458,36.417
32.735,36.428
33.058,36.439
33.43,36.449
33.854,36.456
34.332,36.461
34.864,36.463
35.446,36.46
36.073,36.454
36.737,36.442
37.426,36.426
38.13,36.405
38.834,36.38
39.525,36.35
40.191,36.315
40.819,36.275
41.4,36.229
41.924,36.176
42.384,36.116
42.777,36.05
43.099,35.979
43.351,35.904
43.534,35.824
43.652,35.739
43.71,35.651
43.714,35.559
43.671,35.465
43.588,35.368
43.471,35.271
43.328,35.174
43.163,35.079
42.982,34.991
42.789,34.909
42.59,34.833
42.388,34.762
42.186,34.695
41.986,34.629
41.792,34.564
41.602,34.497
41.419,34.427
41.242,34.352
41.072,34.272
40.909,34.188
40.754,34.1
40.606,34.009
40.466,33.915
40.333,33.821
40.207,33.727
40.086,33.635
39.971,33.543
39.86,33.453
39.751,33.366
39.643,33.283
39.536,33.206
39.429,33.137
39.32,33.075
39.208,33.019
39.092,32.969
38.972,32.924
38.848,32.883
38.72,32.847
38.589,32.814
38.457,32.783
38.324,32.753
38.192,32.723
38.06,32.693
37.93,32.664
37.802,32.635
37.678,32.605
37.558,32.574
37.444,32.541
37.337,32.508
37.235,32.474
37.141,32.439
37.053,32.403
36.972,32.366
36.899,32.329
36.833,32.293
36.774,32.257
36.723,32.221
36.678,32.185
36.64,32.149
36.606,32.114
36.577,32.081
36.552,32.05
36.529,32.022
36.51,31.996
36.492,31.972
36.475,31.951
36.459,31.932
36.44,31.916
36.419,31.902
36.395,31.889
36.367,31.876
36.334,31.862
36.297,31.849
36.257,31.836
36.213,31.821
36.167,31.805
36.118,31.788
36.067,31.77
36.013,31.752
35.957,31.734
35.897,31.718
35.833,31.702
35.766,31.689
35.695,31.68
35.619,31.675
35.54,31.675
35.456,31.678
35.369,31.682
35.279,31.686
35.187,31.688
35.092,31.688
34.996,31.684
34.899,31.675
34.803,31.661
34.707,31.64
34.613,31.613
34.521,31.581
34.431,31.543
34.343,31.502
34.258,31.459
34.175,31.417
34.095,31.38
34.017,31.353
33.94,31.341
33.864,31.347
33.789,31.376
33.715,31.432
33.641,31.521
33.569,31.645
33.498,31.807
33.428,32.009
33.361,32.254
33.296,32.543
33.233,32.878
33.172,33.257
33.112,33.678
33.055,34.136
32.998,34.625
32.942,35.14
32.886,35.672
32.831,36.214
32.777,36.758
32.725,37.297
32.674,37.823
32.625,38.332
32.578,38.817
32.534,39.274
32.494,39.699
32.459,40.088
32.427,40.437
32.398,40.746
32.372,41.012
32.348,41.238
32.326,41.422
32.303,41.566
32.28,41.672
32.257,41.743
32.233,41.782
32.209,41.793
32.183,41.779
32.156,41.742
32.127,41.684
32.097,41.607
32.065,41.513
32.033,41.405
32.003,41.287
31.974,41.159
31.948,41.026
31.925,40.888
31.907,40.748
31.893,40.607
31.882,40.468
31.874,40.329
31.868,40.191
31.864,40.055
31.863,39.92
31.863,39.788
31.865,39.659
31.869,39.533
31.873,39.408
31.875,39.286
31.876,39.165
31.873,39.044
31.868,38.922
31.86,38.798
31.849,38.672
31.837,38.543
31.823,38.412
31.808,38.28
31.793,38.148
31.777,38.015
31.76,37.884
31.743,37.753
31.726,37.624
31.708,37.496
31.69,37.37
31.673,37.247
31.656,37.128
31.64,37.014
31.623,36.908
31.606,36.811
31.589,36.723
31.573,36.646
31.558,36.579
31.544,36.521
31.531,36.473
31.521,36.434
31.513,36.405
31.507,36.383
31.506,36.369
31.511,36.36
31.526,36.355
31.553,36.356
31.595,36.359
31.658,36.365
31.744,36.372
31.86,36.38
32.007,36.389
32.19,36.398
32.41,36.406
32.666,36.412
32.961,36.415
33.301,36.414
33.689,36.411
34.128,36.405
34.622,36.397
35.169,36.385
35.765,36.371
36.403,36.353
37.074,36.329
37.766,36.299
38.464,36.261
39.155,36.213
39.823,36.157
40.458,36.093
41.046,36.024
41.578,35.952
42.048,35.877
42.45,35.802
42.782,35.728
43.042,35.653
43.232,35.579
43.357,35.505
43.42,35.431
43.429,35.357
43.389,35.285
43.308,35.212
43.193,35.14
43.049,35.067
42.883,34.993
42.7,34.916
42.504,34.836
42.299,34.751
42.088,34.663
41.874,34.571
41.66,34.478
41.446,34.381
41.235,34.283
41.029,34.184
40.828,34.085
40.633,33.989
40.445,33.896
40.265,33.806
40.091,33.718
39.925,33.633
39.766,33.552
39.615,33.474
39.47,33.4
39.331,33.329
39.196,33.262
39.065,33.197
38.937,33.136
38.81,33.077
38.683,33.02
38.555,32.964
38.427,32.909
38.298,32.853
38.169,32.799
38.041,32.744
37.913,32.69
37.786,32.635
37.659,32.58
37.532,32.525
37.405,32.472
37.279,32.42
37.156,32.37
37.037,32.323
36.923,32.276
36.814,32.23
36.711,32.186
36.616,32.142
36.528,32.101
36.449,32.061
36.378,32.023
36.317,31.986
36.265,31.95
36.222,31.916
36.188,31.881
36.16,31.847
36.139,31.813
36.124,31.781
36.113,31.752
36.108,31.726
36.106,31.703
36.107,31.682
36.108,31.666
36.107,31.654
36.104,31.648
36.096,31.647
36.085,31.651
36.069,31.659
36.05,31.668
36.027,31.678
36,31.686
35.969,31.691
35.935,31.692
35.896,31.689
35.854,31.682
35.807,31.671
35.758,31.657
35.705,31.64
35.648,31.622
35.588,31.604
35.524,31.586
35.456,31.571
35.384,31.557
35.307,31.547
35.226,31.538
35.141,31.532
35.053,31.527
34.963,31.523
34.871,31.518
34.777,31.512
34.682,31.502
34.586,31.488
34.491,31.468
34.396,31.446
34.301,31.42
34.207,31.393
34.113,31.366
34.022,31.34
33.935,31.316
33.852,31.297
33.772,31.285
33.697,31.284
33.625,31.299
33.556,31.335
33.489,31.399
33.424,31.495
33.36,31.63
33.295,31.807
33.23,32.03
33.164,32.301
33.099,32.623
33.035,32.995
32.971,33.417
32.909,33.884
32.848,34.393
32.788,34.936
32.728,35.507
32.668,36.097
32.609,36.697
32.55,37.298
32.492,37.893
32.436,38.474
32.382,39.034
32.332,39.564
32.284,40.058
32.238,40.512
32.194,40.922
32.151,41.285
32.109,41.602
32.068,41.871
32.028,42.095
31.99,42.274
31.954,42.413
31.921,42.514
31.891,42.58
31.864,42.616
31.838,42.624
31.815,42.605
31.792,42.563
31.771,42.501
31.751,42.423
31.733,42.33
31.718,42.225
31.704,42.111
31.693,41.989
31.684,41.862
31.676,41.733
31.668,41.604
31.66,41.477
31.65,41.352
31.64,41.229
31.628,41.109
31.614,40.991
31.601,40.874
31.587,40.759
31.573,40.643
31.56,40.527
31.548,40.41
31.536,40.293
31.525,40.177
31.513,40.062
31.502,39.948
31.491,39.835
31.481,39.723
31.473,39.61
31.466,39.499
31.461,39.387
31.457,39.274
31.456,39.16
31.456,39.044
31.458,38.925
31.459,38.802
31.46,38.677
31.46,38.55
31.459,38.423
31.457,38.295
31.454,38.17
31.45,38.05
31.445,37.934
31.439,37.824
31.431,37.719
31.42,37.619
31.407,37.526
31.391,37.441
31.373,37.363
31.354,37.293
31.333,37.231
31.312,37.177
31.292,37.132
31.273,37.097
31.257,37.071
31.246,37.054
31.242,37.044
31.248,37.038
31.268,37.034
31.305,37.032
31.363,37.031
31.446,37.029
31.558,37.026
31.704,37.022
31.886,37.015
32.109,37.005
32.374,36.993
32.685,36.977
33.043,36.958
33.452,36.933
33.913,36.903
34.429,36.867
34.997,36.826
35.614,36.779
36.273,36.727
36.964,36.67
37.677,36.609
38.399,36.544
39.117,36.477
39.816,36.409
40.485,36.338
41.109,36.265
41.679,36.191
42.187,36.115
42.626,36.038
42.994,35.959
43.289,35.878
43.514,35.795
43.672,35.711
43.767,35.626
43.805,35.542
43.792,35.456
43.735,35.37
43.639,35.281
43.512,35.189
43.358,35.096
43.184,35.002
42.994,34.908
42.793,34.815
42.585,34.725
42.375,34.639
42.165,34.555
41.958,34.475
41.757,34.396
41.562,34.317
41.375,34.239
41.194,34.16
41.02,34.082
40.854,34.005
40.696,33.93
40.544,33.856
40.398,33.782
40.258,33.71
40.121,33.637
39.988,33.564
39.858,33.491
39.73,33.421
39.603,33.353
39.478,33.289
39.355,33.223
39.235,33.153
39.116,33.078
38.998,32.998
38.881,32.917
38.765,32.837
38.648,32.762
38.529,32.693
38.408,32.632
38.284,32.58
38.156,32.537
38.026,32.503
37.893,32.477
37.758,32.456
37.623,32.439
37.49,32.424
37.36,32.412
37.234,32.402
37.115,32.394
37.003,32.388
36.9,32.384
36.804,32.381
36.716,32.377
36.636,32.371
36.564,32.365
36.499,32.355
36.441,32.344
36.391,32.33
36.346,32.315
36.308,32.297
36.275,32.276
36.248,32.251
36.226,32.222
36.207,32.19
36.193,32.156
36.18,32.122
36.168,32.09
36.156,32.061
36.143,32.034
36.128,32.011
36.111,31.99
36.091,31.971
36.068,31.953
36.042,31.936
36.013,31.921
35.979,31.909
35.942,31.899
35.9,31.891
35.854,31.885
35.802,31.879
35.747,31.872
35.687,31.862
35.624,31.848
35.558,31.829
35.489,31.806
35.418,31.779
35.344,31.748
35.269,31.714
35.192,31.68
35.113,31.645
35.032,31.611
34.948,31.576
34.862,31.541
34.774,31.51
34.686,31.483
34.598,31.464
34.509,31.455
34.42,31.46
34.331,31.483
34.242,31.528
34.152,31.601
34.062,31.708
33.973,31.853
33.885,32.043
33.799,32.28
33.715,32.568
33.633,32.908
33.555,33.298
33.48,33.736
33.407,34.216
33.338,34.732
33.272,35.277
33.209,35.844
33.148,36.424
33.088,37.009
33.03,37.591
32.974,38.161
32.919,38.713
32.867,39.241
32.816,39.741
32.766,40.207
32.717,40.636
32.668,41.022
32.62,41.364
32.571,41.66
32.522,41.912
32.473,42.119
32.423,42.283
32.372,42.407
32.322,42.494
32.273,42.547
32.226,42.568
32.18,42.561
32.135,42.531
32.093,42.48
32.052,42.411
32.013,42.327
31.976,42.232
31.941,42.128
31.909,42.016
31.88,41.898
31.854,41.777
31.829,41.653
31.807,41.529
31.786,41.404
31.766,41.279
31.746,41.153
31.727,41.028
31.708,40.904
31.689,40.782
31.672,40.663
31.657,40.547
31.644,40.434
31.631,40.325
31.619,40.219
31.607,40.117
31.595,40.018
31.584,39.921
31.572,39.827
31.56,39.733
31.549,39.641
31.538,39.548
31.528,39.456
31.519,39.363
31.509,39.268
31.498,39.17
31.486,39.07
31.473,38.967
31.459,38.864
31.445,38.759
31.432,38.656
31.419,38.552
31.407,38.448
31.396,38.343
31.388,38.239
31.38,38.137
31.373,38.038
31.367,37.943
31.361,37.854
31.356,37.771
31.35,37.695
31.345,37.626
31.339,37.564
31.332,37.507
31.324,37.457
31.314,37.413
31.302,37.377
31.289,37.347
31.275,37.323
31.26,37.303
31.243,37.287
31.224,37.274
31.205,37.263
31.186,37.254
31.169,37.246
31.155,37.239
31.147,37.231
31.147,37.22
31.158,37.207
31.182,37.19
31.222,37.167
31.283,37.139
31.367,37.106
31.478,37.069
31.62,37.027
31.795,36.982
32.006,36.933
32.257,36.881
32.548,36.826
32.884,36.767
33.264,36.706
33.691,36.641
34.166,36.571
34.688,36.497
35.256,36.419
35.865,36.338
36.509,36.255
37.179,36.17
37.865,36.084
38.556,35.997
39.241,35.909
39.908,35.82
40.546,35.73
41.143,35.638
41.69,35.545
42.178,35.452
42.601,35.359
42.955,35.268
43.239,35.178
43.453,35.09
43.6,35.002
43.683,34.913
43.707,34.822
43.678,34.731
43.603,34.639
43.487,34.548
43.339,34.459
43.164,34.372
42.97,34.289
42.761,34.208
42.544,34.13
42.322,34.054
42.099,33.98
41.879,33.908
41.663,33.84
41.452,33.776
41.248,33.717
41.05,33.662
40.858,33.61
40.675,33.559
40.499,33.508
40.331,33.456
40.17,33.404
40.016,33.353
39.868,33.302
39.724,33.251
39.584,33.2
39.448,33.15
39.316,33.098
39.186,33.047
39.06,32.994
38.935,32.942
38.812,32.891
38.691,32.844
38.57,32.803
38.45,32.767
38.332,32.736
38.213,32.711
38.094,32.691
37.974,32.675
37.853,32.663
37.731,32.653
37.609,32.645
37.487,32.638
37.366,32.632
37.245,32.627
37.126,32.621
37.009,32.613
36.895,32.601
36.786,32.585
36.684,32.566
36.589,32.545
36.503,32.521
36.427,32.497
36.359,32.472
36.301,32.448
36.25,32.423
36.207,32.398
36.17,32.372
36.139,32.348
36.112,32.323
36.089,32.3
36.069,32.279
36.051,32.26
36.036,32.243
36.022,32.225
36.009,32.206
35.997,32.185
35.986,32.161
35.973,32.133
35.957,32.094
35.938,32.038
35.914,31.968
35.885,31.889
35.85,31.809
35.81,31.737
35.766,31.68
35.719,31.649
35.668,31.651
35.616,31.693
35.56,31.781
35.5,31.921
35.437,32.115
35.37,32.365
35.298,32.671
35.223,33.031
35.145,33.442
35.066,33.899
34.985,34.395
34.903,34.922
34.821,35.472
34.738,36.036
34.653,36.607
34.567,37.176
34.48,37.735
34.392,38.278
34.302,38.797
34.213,39.287
34.125,39.744
34.04,40.163
33.956,40.542
33.875,40.877
33.794,41.168
33.714,41.414
33.634,41.617
33.552,41.778
33.471,41.901
33.389,41.989
33.308,42.046
33.228,42.074
33.149,42.078
33.072,42.06
32.997,42.022
32.925,41.966
32.856,41.894
32.79,41.806
32.727,41.706
32.668,41.595
32.612,41.474
32.561,41.345
32.513,41.212
32.468,41.076
32.426,40.939
32.385,40.803
32.346,40.668
32.309,40.537
32.272,40.408
32.235,40.283
32.198,40.16
32.16,40.04
32.121,39.922
32.081,39.805
32.039,39.691
31.997,39.578
31.954,39.468
31.912,39.361
31.872,39.256
31.833,39.153
31.797,39.048
31.762,38.943
31.731,38.835
31.702,38.728
31.676,38.629
31.654,38.54
31.635,38.462
31.619,38.388
31.605,38.316
31.593,38.24
31.583,38.157
31.573,38.065
31.563,37.963
31.552,37.853
31.541,37.735
31.53,37.613
31.518,37.488
31.507,37.363
31.496,37.24
31.485,37.121
31.474,37.009
31.463,36.905
31.45,36.814
31.437,36.736
31.422,36.673
31.407,36.624
31.393,36.592
31.379,36.573
31.366,36.567
31.354,36.572
31.345,36.584
31.337,36.603
31.332,36.626
31.329,36.653
31.329,36.682
31.332,36.711
31.338,36.738
31.345,36.763
31.353,36.783
31.361,36.796
31.368,36.803
31.372,36.801
31.373,36.791
31.372,36.773
31.366,36.746
31.357,36.712
31.344,36.669
31.328,36.618
31.308,36.557
31.285,36.489
31.261,36.414
31.236,36.334
31.211,36.249
31.188,36.161
31.17,36.07
31.159,35.977
31.157,35.881
31.168,35.785
31.196,35.689
31.244,35.595
31.316,35.503
31.418,35.413
31.552,35.327
31.723,35.245
31.934,35.165
32.188,35.087
32.487,35.01
32.831,34.933
33.221,34.854
33.657,34.774
34.138,34.693
34.664,34.61
35.232,34.525
35.838,34.437
36.475,34.347
37.135,34.255
37.809,34.161
38.484,34.068
39.147,33.976
39.788,33.887
40.394,33.802
40.956,33.722
41.465,33.648
41.914,33.579
42.298,33.516
42.615,33.457
42.865,33.403
43.048,33.352
43.166,33.304
43.225,33.259
43.229,33.215
43.184,33.174
43.097,33.135
42.975,33.097
42.824,33.06
42.649,33.022
42.456,32.983
42.25,32.941
42.036,32.898
41.816,32.855
41.594,32.813
41.37,32.772
41.148,32.733
40.927,32.696
40.709,32.662
40.496,32.632
40.286,32.605
40.082,32.583
39.884,32.565
39.693,32.553
39.51,32.545
39.334,32.541
39.165,32.539
39.004,32.537
38.85,32.533
38.702,32.526
38.558,32.516
38.417,32.503
38.278,32.487
38.14,32.467
38.002,32.444
37.866,32.417
37.731,32.389
37.598,32.358
37.465,32.326
37.333,32.294
37.202,32.263
37.07,32.236
36.94,32.216
36.811,32.206
36.686,32.212
36.565,32.237
36.449,32.286
36.338,32.364
36.234,32.475
36.137,32.624
36.047,32.815
35.966,33.051
35.895,33.334
35.834,33.662
35.78,34.034
35.735,34.444
35.696,34.887
35.663,35.357
35.635,35.845
35.612,36.346
35.594,36.853
35.581,37.358
35.572,37.854
35.567,38.336
35.564,38.797
35.562,39.234
35.559,39.644
35.555,40.024
35.549,40.37
35.542,40.681
35.532,40.953
35.521,41.186
35.507,41.378
35.491,41.531
35.471,41.643
35.447,41.716
35.418,41.752
35.384,41.757
35.345,41.733
35.302,41.684
35.256,41.613
35.208,41.524
35.157,41.418
35.105,41.299
35.05,41.17
34.992,41.031
34.931,40.886
34.868,40.734
34.801,40.579
34.731,40.422
34.659,40.263
34.585,40.105
34.509,39.948
34.432,39.795
34.354,39.645
34.276,39.501
34.197,39.363
34.117,39.231
34.038,39.104
33.957,38.979
33.877,38.857
33.796,38.735
33.719,38.613
33.644,38.49
33.572,38.364
33.503,38.235
33.434,38.103
33.367,37.968
33.3,37.831
33.233,37.692
33.167,37.554
33.101,37.416
33.036,37.279
32.973,37.147
32.913,37.018
32.854,36.896
32.799,36.78
32.746,36.671
32.695,36.571
32.645,36.481
32.597,36.402
32.549,36.334
32.502,36.278
32.456,36.231
32.411,36.195
32.367,36.17
32.325,36.154
32.283,36.149
32.242,36.153
32.201,36.164
32.158,36.181
32.116,36.202
32.073,36.226
32.03,36.254
31.988,36.285
31.946,36.317
31.905,36.35
31.866,36.382
31.831,36.411
31.799,36.435
31.771,36.451
31.747,36.459
31.728,36.457
31.713,36.446
31.702,36.427
31.695,36.401
31.691,36.37
31.691,36.332
31.694,36.288
31.698,36.237
31.703,36.181
31.708,36.12
31.713,36.055
31.717,35.987
31.719,35.917
31.719,35.849
31.717,35.783
31.713,35.72
31.708,35.659
31.702,35.599
31.695,35.537
31.687,35.473
31.679,35.407
31.668,35.337
31.657,35.263
31.644,35.185
31.629,35.102
31.614,35.015
31.598,34.925
31.582,34.832
31.567,34.736
31.553,34.637
31.54,34.536
31.527,34.435
31.514,34.333
31.502,34.232
31.491,34.13
31.48,34.03
31.471,33.933
31.463,33.84
31.457,33.754
31.453,33.673
31.453,33.599
31.459,33.53
31.474,33.466
31.501,33.408
31.544,33.354
31.607,33.305
31.693,33.256
31.807,33.209
31.953,33.162
32.133,33.115
32.351,33.068
32.609,33.024
32.907,32.98
33.248,32.938
33.632,32.898
34.06,32.861
34.532,32.826
35.046,32.793
35.6,32.761
36.19,32.73
36.809,32.7
37.449,32.672
38.1,32.647
38.749,32.625
39.384,32.605
39.994,32.585
40.567,32.567
41.093,32.549
41.565,32.531
41.976,32.512
42.323,32.492
42.603,32.47
42.816,32.445
42.964,32.418
43.052,32.387
43.083,32.352
43.065,32.313
43.002,32.273
42.902,32.235
42.77,32.201
42.611,32.174
42.43,32.156
42.232,32.15
42.02,32.158
41.797,32.185
41.567,32.233
41.331,32.307
41.093,32.41
40.854,32.547
40.616,32.72
40.381,32.933
40.153,33.188
39.931,33.485
39.716,33.824
39.51,34.202
39.312,34.615
39.123,35.061
38.943,35.532
38.77,36.023
38.604,36.528
38.444,37.039
38.29,37.551
38.139,38.058
37.992,38.553
37.847,39.03
37.705,39.483
37.566,39.905
37.428,40.293
37.292,40.644
37.157,40.954
37.023,41.223
36.89,41.449
36.758,41.634
36.629,41.777
36.501,41.882
36.377,41.95
36.259,41.984
36.147,41.987
36.043,41.959
35.947,41.907
35.862,41.833
35.785,41.741
35.718,41.634
35.66,41.514
35.61,41.382
35.569,41.242
35.536,41.094
35.511,40.941
35.493,40.784
35.484,40.627
35.48,40.469
35.482,40.313
35.488,40.158
35.496,40.006
35.506,39.856
35.515,39.71
35.524,39.566
35.532,39.424
35.538,39.285
35.542,39.15
35.543,39.016
35.54,38.883
35.533,38.748
35.522,38.609
35.506,38.466
35.486,38.321
35.461,38.173
35.432,38.023
35.398,37.872
35.359,37.722
35.317,37.573
35.271,37.426
35.222,37.282
35.168,37.141
35.111,37.004
35.052,36.873
34.989,36.75
34.924,36.637
34.856,36.536
34.788,36.448
34.717,36.373
34.645,36.311
34.57,36.261
34.493,36.222
34.415,36.192
34.334,36.17
34.251,36.154
34.167,36.145
34.082,36.142
33.996,36.145
33.909,36.153
33.823,36.166
33.739,36.179
33.655,36.192
33.574,36.202
33.494,36.206
33.417,36.206
33.343,36.202
33.273,36.193
33.206,36.181
33.144,36.167
33.085,36.151
33.031,36.132
32.98,36.111
32.932,36.087
32.886,36.055
32.843,36.016
32.802,35.968
32.763,35.914
32.725,35.853
32.688,35.788
32.654,35.718
32.62,35.646
32.586,35.571
32.552,35.494
32.516,35.414
32.479,35.332
32.439,35.248
32.397,35.162
32.354,35.076
32.31,34.992
32.266,34.909
32.222,34.829
32.177,34.752
32.132,34.677
32.088,34.605
32.046,34.533
32.005,34.461
31.967,34.387
31.933,34.309
31.903,34.228
31.878,34.144
31.859,34.059
31.846,33.973
31.838,33.887
31.834,33.802
31.833,33.718
31.834,33.635
31.837,33.553
31.84,33.473
31.844,33.394
31.846,33.319
31.848,33.248
31.847,33.183
31.844,33.123
31.84,33.069
31.834,33.02
31.827,32.975
31.818,32.933
31.808,32.893
31.796,32.855
31.784,32.817
31.771,32.777
31.757,32.738
31.743,32.698
31.73,32.659
31.717,32.621
31.705,32.582
31.695,32.544
31.686,32.506
31.679,32.47
31.674,32.435
31.67,32.401
31.669,32.37
31.669,32.342
31.669,32.316
31.669,32.293
31.668,32.271
31.666,32.246
31.662,32.216
31.656,32.18
31.65,32.139
31.642,32.095
31.634,32.05
31.628,32.003
31.626,31.958
31.629,31.913
31.642,31.873
31.668,31.838
31.713,31.811
31.781,31.794
31.878,31.79
32.008,31.804
32.176,31.84
32.385,31.904
32.638,32.002
32.936,32.137
33.281,32.314
33.672,32.536
34.111,32.805
34.597,33.123
35.129,33.488
35.702,33.896
36.313,34.343
36.955,34.823
37.62,35.33
38.299,35.857
38.981,36.395
39.653,36.937
40.304,37.474
40.923,37.999
41.499,38.505
42.025,38.987
42.493,39.438
42.899,39.855
43.237,40.233
43.508,40.571
43.711,40.867
43.849,41.121
43.927,41.334
43.949,41.505
43.92,41.633
43.848,41.721
43.738,41.772
43.597,41.787
43.429,41.773
43.239,41.734
43.03,41.672
42.808,41.595
42.575,41.504
42.337,41.405
42.097,41.3
41.861,41.19
41.631,41.078
41.409,40.965
41.198,40.852
40.997,40.738
40.808,40.625
40.628,40.512
40.459,40.4
40.299,40.289
40.146,40.179
40,40.071
39.859,39.965
39.722,39.861
39.588,39.759
39.458,39.66
39.329,39.563
39.202,39.471
39.075,39.381
38.948,39.293
38.821,39.202
38.691,39.108
38.561,39.01
38.43,38.908
38.298,38.803
38.167,38.693
38.036,38.58
37.907,38.462
37.779,38.341
37.654,38.216
37.531,38.089
37.411,37.959
37.294,37.827
37.182,37.691
37.074,37.554
36.97,37.417
36.872,37.283
36.779,37.151
36.693,37.023
36.615,36.901
36.546,36.785
36.486,36.675
36.435,36.573
36.393,36.478
36.359,36.389
36.331,36.308
36.309,36.235
36.292,36.17
36.279,36.113
36.27,36.064
36.261,36.021
36.254,35.982
36.245,35.945
36.235,35.91
36.223,35.876
36.208,35.844
36.19,35.813
36.168,35.784
36.14,35.758
36.108,35.732
36.071,35.707
36.03,35.68
35.986,35.649
35.94,35.614
35.893,35.574
35.844,35.531
35.795,35.486
35.743,35.439
35.69,35.389
35.634,35.337
35.575,35.281
35.511,35.221
35.443,35.158
35.371,35.09
35.295,35.018
35.215,34.941
35.132,34.86
35.046,34.777
34.958,34.693
34.868,34.608
34.776,34.522
34.683,34.436
34.59,34.35
34.498,34.265
34.408,34.18
34.321,34.096
34.237,34.012
34.155,33.929
34.076,33.847
33.999,33.766
33.924,33.685
33.85,33.604
33.777,33.52
33.705,33.434
33.635,33.345
33.565,33.253
33.498,33.16
33.432,33.065
33.367,32.969
33.302,32.873
33.236,32.778
33.17,32.687
33.102,32.6
33.034,32.518
32.966,32.441
32.898,32.367
32.831,32.298
32.765,32.232
32.699,32.17
32.635,32.111
32.573,32.055
32.513,32.001
32.457,31.949
32.405,31.897
32.358,31.846
32.315,31.797
32.278,31.75
32.244,31.704
32.214,31.661
32.186,31.62
32.162,31.581
32.139,31.545
32.119,31.511
32.101,31.476
32.086,31.441
32.073,31.403
32.063,31.364
32.054,31.324
32.045,31.284
32.036,31.246
32.025,31.213
32.013,31.186
32,31.17
31.986,31.167
31.972,31.182
31.958,31.221
31.943,31.288
31.928,31.389
31.913,31.526
31.899,31.702
31.884,31.918
31.869,32.176
31.855,32.476
31.842,32.815
31.83,33.192
31.82,33.602
31.812,34.042
31.805,34.505
31.801,34.985
31.798,35.473
31.796,35.96
31.796,36.439
31.797,36.902
31.797,37.343
31.796,37.758
31.794,38.141
31.79,38.488
31.784,38.795
31.775,39.062
31.762,39.286
31.745,39.468
31.725,39.607
31.704,39.707
31.681,39.768
31.661,39.794
31.643,39.788
31.633,39.754
31.632,39.695
31.645,39.614
31.676,39.513
31.729,39.398
31.809,39.272
31.92,39.139
32.067,39.004
32.253,38.867
32.482,38.734
32.755,38.605
33.075,38.482
33.441,38.367
33.855,38.258
34.317,38.156
34.824,38.06
35.376,37.97
35.969,37.887
36.598,37.811
37.255,37.742
37.93,37.678
38.612,37.619
39.289,37.563
39.948,37.507
40.577,37.45
41.166,37.389
41.704,37.325
42.184,37.254
42.601,37.178
42.95,37.096
43.231,37.009
43.444,36.916
43.592,36.819
43.679,36.715
43.709,36.606
43.688,36.493
43.622,36.378
43.518,36.26
43.384,36.141
43.224,36.021
43.044,35.901
42.851,35.784
42.647,35.672
42.436,35.565
42.219,35.464
42,35.369
41.78,35.279
41.559,35.196
41.339,35.12
41.119,35.051
40.902,34.987
40.688,34.923
40.48,34.856
40.278,34.784
40.086,34.71
39.902,34.637
39.728,34.565
39.565,34.498
39.41,34.437
39.264,34.384
39.125,34.339
38.991,34.303
38.862,34.276
38.736,34.258
38.611,34.248
38.488,34.246
38.365,34.25
38.243,34.257
38.119,34.265
37.994,34.272
37.868,34.276
37.741,34.276
37.613,34.272
37.487,34.261
37.361,34.244
37.239,34.22
37.12,34.189
37.008,34.151
36.904,34.105
36.806,34.053
36.715,33.993
36.63,33.927
36.55,33.854
36.476,33.775
36.407,33.691
36.342,33.604
36.281,33.514
36.225,33.424
36.174,33.336
36.128,33.253
36.089,33.173
36.055,33.099
36.026,33.028
36.002,32.96
35.981,32.895
35.961,32.833
35.942,32.772
35.922,32.711
35.903,32.651
35.882,32.589
35.862,32.527
35.842,32.465
35.823,32.403
35.803,32.341
35.783,32.279
35.761,32.216
35.736,32.152
35.708,32.089
35.677,32.025
35.642,31.961
35.603,31.896
35.56,31.832
35.514,31.768
35.465,31.706
35.412,31.646
35.357,31.589
35.298,31.534
35.236,31.483
35.171,31.437
35.104,31.394
35.034,31.355
34.96,31.319
34.884,31.283
34.804,31.247
34.722,31.212
34.639,31.177
34.554,31.142
34.469,31.108
34.385,31.075
34.302,31.044
34.22,31.014
34.139,30.985
34.059,30.958
33.981,30.934
33.905,30.916
33.83,30.906
33.756,30.909
33.685,30.928
33.614,30.968
33.546,31.033
33.478,31.129
33.411,31.26
33.343,31.428
33.274,31.634
33.206,31.878
33.137,32.158
33.069,32.471
33.002,32.813
32.935,33.181
32.87,33.568
32.806,33.97
32.743,34.377
32.683,34.784
32.626,35.183
32.573,35.567
32.524,35.931
32.478,36.269
32.435,36.578
32.394,36.854
32.356,37.096
32.32,37.303
32.286,37.476
32.254,37.614
32.223,37.717
32.194,37.785
32.168,37.822
32.145,37.83
32.125,37.811
32.106,37.77
32.089,37.708
32.074,37.631
32.059,37.543
32.046,37.448
32.035,37.348
32.026,37.245
32.017,37.138
32.008,37.032
31.997,36.927
31.984,36.826
31.967,36.731
31.948,36.642
31.926,36.56
31.902,36.486
31.879,36.418
31.858,36.357
31.838,36.302
31.82,36.251
31.804,36.204
31.791,36.16
31.78,36.117
31.771,36.072
31.764,36.023
31.758,35.971
31.754,35.914
31.751,35.851
31.747,35.783
31.743,35.711
31.738,35.633
31.731,35.551
31.723,35.464
31.716,35.373
31.712,35.279
31.711,35.181
31.718,35.083
31.736,34.984
31.767,34.887
31.817,34.791
31.889,34.699
31.988,34.61
32.118,34.525
32.285,34.444
32.49,34.368
32.738,34.296
33.029,34.231
33.364,34.172
33.743,34.12
34.167,34.073
34.635,34.03
35.146,33.988
35.697,33.947
36.284,33.906
36.901,33.865
37.54,33.826
38.19,33.788
38.842,33.753
39.484,33.721
40.104,33.694
40.692,33.672
41.237,33.655
41.731,33.643
42.167,33.636
42.539,33.635
42.845,33.637
43.083,33.641
43.255,33.646
43.363,33.649
43.413,33.651
43.409,33.648
43.356,33.641
43.262,33.627
43.134,33.606
42.976,33.577
42.796,33.54
42.599,33.494
42.39,33.441
42.174,33.381
41.953,33.316
41.732,33.247
41.512,33.176
41.295,33.105
41.082,33.035
40.873,32.968
40.668,32.904
40.469,32.843
40.274,32.785
40.085,32.728
39.902,32.672
39.723,32.617
39.55,32.561
39.382,32.504
39.219,32.448
39.06,32.392
38.904,32.336
38.752,32.281
38.604,32.226
38.458,32.172
38.315,32.119
38.174,32.067
38.034,32.015
37.894,31.964
37.755,31.914
37.616,31.866
37.478,31.819
37.343,31.773
37.209,31.729
37.078,31.687
36.95,31.647
36.826,31.611
36.705,31.578
36.59,31.547
36.48,31.516
36.376,31.485
36.28,31.453
36.191,31.421
36.112,31.39
36.041,31.359
35.98,31.329
35.928,31.3
35.886,31.271
35.852,31.242
35.826,31.213
35.807,31.185
35.795,31.156
35.787,31.125
35.782,31.091
35.78,31.055
35.78,31.017
35.779,30.978
35.778,30.938
35.776,30.899
35.771,30.863
35.764,30.832
35.755,30.808
35.744,30.794
35.731,30.79
35.714,30.797
35.694,30.819
35.671,30.857
35.643,30.914
35.611,30.994
35.575,31.098
35.534,31.229
35.489,31.389
35.441,31.579
35.39,31.799
35.337,32.049
35.283,32.325
35.228,32.624
35.17,32.94
35.109,33.271
35.046,33.611
34.979,33.952
34.909,34.288
34.835,34.614
34.758,34.923
34.678,35.212
34.595,35.477
34.511,35.713
34.425,35.918
34.339,36.089
34.253,36.226
34.168,36.33
34.085,36.402
34.002,36.444
33.92,36.458
33.838,36.447
33.758,36.413
33.678,36.36
33.599,36.29
33.521,36.204
33.446,36.105
33.372,35.998
33.3,35.887
33.23,35.776
33.162,35.667
33.097,35.562
33.033,35.462
32.971,35.368
32.91,35.279
32.851,35.197
32.795,35.121
32.741,35.052
32.689,34.989
32.64,34.933
32.595,34.884
32.552,34.843
32.512,34.805
32.476,34.771
32.443,34.737
32.412,34.702
32.383,34.664
32.356,34.622
32.33,34.576
32.305,34.526
32.282,34.472
32.259,34.414
32.238,34.353
32.217,34.289
32.195,34.222
32.173,34.151
32.149,34.077
32.126,34.002
32.102,33.927
32.078,33.852
32.055,33.779
32.034,33.706
32.015,33.637
31.998,33.57
31.984,33.506
31.972,33.447
31.962,33.394
31.953,33.346
31.944,33.304
31.936,33.27
31.929,33.243
31.922,33.222
31.917,33.207
31.913,33.194
31.91,33.184
31.908,33.174
31.906,33.166
31.904,33.158
31.902,33.15
31.899,33.141
31.898,33.13
31.9,33.117
31.907,33.102
31.924,33.082
31.954,33.058
32.001,33.03
32.069,32.997
32.162,32.962
32.285,32.925
32.442,32.888
32.636,32.852
32.871,32.815
33.148,32.779
33.471,32.743
33.841,32.708
34.259,32.672
34.726,32.636
35.242,32.598
35.803,32.56
36.404,32.522
37.038,32.482
37.695,32.441
38.363,32.396
39.031,32.347
39.686,32.295
40.317,32.239
40.912,32.182
41.461,32.125
41.957,32.066
42.391,32.008
42.761,31.949
43.064,31.889
43.3,31.83
43.471,31.772
43.579,31.715
43.628,31.661
43.623,31.61
43.571,31.563
43.478,31.519
43.351,31.479
43.195,31.441
43.017,31.403
42.822,31.366
42.615,31.33
42.401,31.292
42.181,31.252
41.96,31.208
41.74,31.161
41.52,31.112
41.303,31.061
41.088,31.012
40.877,30.966
40.669,30.923
40.467,30.883
40.27,30.848
40.081,30.817
39.899,30.79
39.725,30.767
39.558,30.747
39.399,30.729
39.247,30.713
39.101,30.699
38.96,30.684
38.823,30.668
38.688,30.652
38.555,30.635
38.422,30.617
38.289,30.598
38.156,30.58
38.022,30.562
37.888,30.546
37.753,30.532
37.618,30.52
37.483,30.511
37.348,30.503
37.215,30.497
37.084,30.494
36.956,30.492
36.833,30.493
36.716,30.493
36.606,30.493
36.503,30.493
36.408,30.492
36.321,30.491
36.242,30.49
36.172,30.489
36.11,30.489
36.054,30.489
36.005,30.489
35.961,30.489
35.922,30.488
35.89,30.485
35.864,30.481
35.846,30.477
35.834,30.475
35.829,30.477
35.827,30.485
35.827,30.502
35.828,30.528
35.826,30.565
35.823,30.619
35.817,30.693
35.807,30.79
35.794,30.914
35.776,31.066
35.754,31.247
35.729,31.455
35.7,31.69
35.668,31.948
35.633,32.224
35.596,32.513
35.556,32.81
35.512,33.11
35.464,33.409
35.411,33.703
35.354,33.986
35.291,34.255
35.223,34.504
35.152,34.729
35.078,34.925
35.001,35.089
34.921,35.219
34.839,35.315
34.756,35.379
34.671,35.415
34.584,35.426
34.498,35.414
34.412,35.379
34.328,35.325
34.245,35.255
34.164,35.171
34.083,35.076
34.002,34.973
33.921,34.865
33.839,34.754
33.756,34.644
33.674,34.536
33.592,34.433
33.511,34.335
33.432,34.24
33.353,34.15
33.275,34.063
33.198,33.981
33.122,33.904
33.047,33.83
32.974,33.76
32.903,33.692
32.835,33.628
32.771,33.569
32.71,33.514
32.653,33.464
32.599,33.417
32.549,33.373
32.502,33.331
32.459,33.289
32.419,33.247
32.382,33.203
32.348,33.156
32.316,33.105
32.286,33.052
32.258,32.997
32.232,32.942
32.208,32.888
32.185,32.836
32.165,32.785
32.145,32.737
32.127,32.693
32.109,32.651
32.092,32.611
32.075,32.571
32.058,32.532
32.04,32.493
32.021,32.458
32.002,32.427
31.982,32.402
31.961,32.384
31.94,32.373
31.917,32.371
31.894,32.375
31.87,32.386
31.845,32.401
31.821,32.42
31.799,32.441
31.783,32.463
31.775,32.487
31.777,32.511
31.789,32.532
31.812,32.55
31.844,32.561
31.887,32.562
31.941,32.552
32.011,32.532
32.098,32.506
32.205,32.475
32.337,32.443
32.498,32.412
32.69,32.383
32.918,32.359
33.186,32.34
33.498,32.328
33.858,32.324
34.27,32.326
34.735,32.334
35.254,32.347
35.822,32.362
36.436,32.376
37.085,32.389
37.758,32.397
38.444,32.398
39.128,32.392
39.796,32.377
40.436,32.355
41.036,32.327
41.587,32.294
42.081,32.257
42.512,32.217
42.877,32.176
43.173,32.136
43.402,32.099
43.566,32.065
43.669,32.035
43.715,32.008
43.711,31.985
43.662,31.964
43.574,31.945
43.453,31.926
43.305,31.906
43.135,31.887
42.947,31.868
42.747,31.851
42.539,31.836
42.324,31.822
42.107,31.811
41.89,31.802
41.674,31.798
41.462,31.799
41.254,31.805
41.052,31.817
40.856,31.834
40.667,31.856
40.486,31.88
40.314,31.905
40.15,31.932
39.993,31.958
39.843,31.982
39.698,32.005
39.557,32.027
39.42,32.047
39.284,32.066
39.15,32.083
39.017,32.098
38.884,32.112
38.751,32.123
38.618,32.131
38.485,32.128
38.35,32.11
38.215,32.078
38.078,32.036
37.939,31.988
37.799,31.938
37.658,31.892
37.517,31.851
37.376,31.818
37.237,31.792
37.1,31.776
36.967,31.769
36.838,31.771
36.715,31.779
36.599,31.79
36.492,31.803
36.393,31.814
36.304,31.823
36.224,31.828
36.153,31.83
36.092,31.829
36.039,31.824
35.996,31.816
35.96,31.805
35.932,31.792
35.91,31.776
35.892,31.759
35.878,31.74
35.865,31.72
35.853,31.699
35.841,31.68
35.829,31.662
35.815,31.648
35.8,31.64
35.782,31.641
35.76,31.652
35.734,31.677
35.705,31.717
35.671,31.776
35.634,31.853
35.593,31.952
35.547,32.071
35.498,32.212
35.445,32.373
35.388,32.553
35.328,32.753
35.264,32.971
35.195,33.205
35.123,33.451
35.047,33.706
34.968,33.965
34.886,34.223
34.802,34.473
34.716,34.709
34.628,34.929
34.538,35.127
34.447,35.3
34.356,35.448
34.264,35.57
34.173,35.665
34.081,35.734
33.991,35.776
33.901,35.792
33.813,35.783
33.726,35.75
33.643,35.697
33.563,35.625
33.486,35.539
33.413,35.441
33.343,35.335
33.275,35.225
33.209,35.113
33.144,35.001
33.078,34.89
33.013,34.78
32.948,34.673
32.885,34.569
32.823,34.47
32.763,34.376
32.706,34.288
32.651,34.206
32.599,34.129
32.548,34.058
32.499,33.991
32.45,33.929
32.402,33.87
32.355,33.813
32.309,33.759
32.265,33.707
32.222,33.658
32.182,33.612
32.143,33.567
32.105,33.525
32.068,33.486
32.031,33.448
31.994,33.413
31.957,33.379
31.921,33.345
31.885,33.312
31.851,33.28
31.818,33.25
31.787,33.222
31.758,33.195
31.73,33.17
31.703,33.146
31.677,33.121
31.652,33.096
31.629,33.07
31.607,33.045
31.589,33.022
31.576,33.003
31.569,32.989
31.569,32.98
31.578,32.976
31.599,32.978
31.634,32.985
31.687,32.996
31.762,33.011
31.865,33.03
31.999,33.051
32.169,33.072
32.379,33.091
32.633,33.106
32.937,33.116
33.295,33.12
33.712,33.118
34.189,33.11
34.723,33.098
35.31,33.08
35.943,33.057
36.612,33.03
37.306,33
38.011,32.968
38.716,32.935
39.406,32.902
40.068,32.871
40.69,32.842
41.263,32.816
41.779,32.791
42.232,32.77
42.618,32.75
42.935,32.733
43.182,32.717
43.36,32.7
43.474,32.681
43.529,32.658
43.53,32.632
43.485,32.602
43.399,32.568
43.28,32.529
43.133,32.486
42.965,32.44
42.783,32.392
42.591,32.343
42.393,32.294
42.192,32.245
41.992,32.198
41.794,32.154
41.6,32.113
41.411,32.075
41.228,32.04
41.051,32.007
40.881,31.975
40.716,31.946
40.557,31.918
40.404,31.891
40.255,31.865
40.111,31.837
39.971,31.806
39.834,31.772
39.7,31.735
39.569,31.697
39.441,31.656
39.316,31.616
39.192,31.577
39.069,31.542
38.945,31.511
38.82,31.486
38.692,31.465
38.561,31.45
38.426,31.438
38.289,31.43
38.148,31.426
38.005,31.424
37.86,31.424
37.714,31.423
37.567,31.421
37.42,31.418
37.274,31.415
37.131,31.41
36.99,31.404
36.853,31.397
36.722,31.388
36.597,31.379
36.48,31.37
36.371,31.363
36.272,31.358
36.184,31.357
36.104,31.359
36.034,31.364
35.972,31.372
35.917,31.383
35.87,31.396
35.829,31.412
35.794,31.431
35.766,31.451
35.744,31.473
35.728,31.497
35.716,31.521
35.708,31.546
35.702,31.571
35.696,31.595
35.688,31.617
35.678,31.639
35.665,31.659
35.649,31.68
35.627,31.7
35.601,31.723
35.57,31.748
35.534,31.776
35.493,31.805
35.447,31.836
35.395,31.868
35.338,31.899
35.278,31.929
35.213,31.96
35.144,31.99
35.073,32.02
34.998,32.049
34.92,32.077
34.839,32.101
34.756,32.121
34.669,32.136
34.581,32.146
34.49,32.15
34.398,32.15
34.302,32.146
34.203,32.138
34.102,32.128
33.999,32.117
33.896,32.107
33.792,32.098
33.69,32.092
33.59,32.089
33.493,32.091
33.4,32.098
33.313,32.112
33.232,32.134
33.157,32.166
33.087,32.21
33.022,32.268
32.96,32.342
32.902,32.436
32.846,32.551
32.793,32.689
32.741,32.849
32.69,33.031
32.64,33.234
32.591,33.454
32.542,33.687
32.493,33.929
32.443,34.176
32.391,34.422
32.337,34.666
32.283,34.901
32.228,35.125
32.173,35.331
32.119,35.515
32.064,35.675
32.01,35.807
31.955,35.91
31.9,35.982
31.846,36.024
31.792,36.036
31.741,36.021
31.693,35.982
31.649,35.921
31.61,35.841
31.575,35.745
31.545,35.636
31.52,35.517
31.499,35.392
31.484,35.265
31.474,35.139
31.47,35.017
31.475,34.9
31.489,34.791
31.514,34.689
31.552,34.596
31.608,34.509
31.684,34.426
31.785,34.347
31.916,34.271
32.08,34.199
32.283,34.129
32.532,34.063
32.832,34.001
33.189,33.941
33.605,33.885
34.082,33.832
34.618,33.78
35.208,33.73
35.844,33.681
36.515,33.634
37.208,33.589
37.911,33.546
38.609,33.505
39.29,33.466
39.939,33.43
40.546,33.396
41.102,33.364
41.597,33.335
42.029,33.308
42.392,33.282
42.686,33.255
42.913,33.228
43.075,33.2
43.177,33.17
43.223,33.141
43.219,33.111
43.171,33.083
43.085,33.057
42.968,33.033
42.827,33.013
42.667,32.997
42.494,32.983
42.312,32.971
42.126,32.957
41.938,32.942
41.751,32.927
41.565,32.912
41.383,32.9
41.205,32.892
41.03,32.889
40.86,32.894
40.694,32.904
40.533,32.92
40.376,32.94
40.223,32.963
40.075,32.986
39.932,33.01
39.792,33.031
39.656,33.05
39.522,33.065
39.391,33.075
39.262,33.079
39.133,33.079
39.004,33.075
38.873,33.069
38.738,33.061
38.6,33.052
38.458,33.043
38.311,33.037
38.158,33.032
38.001,33.026
37.841,33.02
37.679,33.011
37.517,32.999
37.355,32.985
37.195,32.967
37.039,32.945
36.887,32.919
36.74,32.89
36.598,32.858
36.464,32.823
36.337,32.787
36.218,32.749
36.108,32.708
36.008,32.667
35.918,32.627
35.837,32.589
35.765,32.554
35.703,32.524
35.65,32.499
35.606,32.478
35.569,32.462
35.538,32.45
35.512,32.442
35.489,32.436
35.468,32.433
35.45,32.433
35.434,32.435
35.42,32.441
35.406,32.447
35.393,32.454
35.377,32.459
35.357,32.461
35.333,32.461
35.305,32.459
35.271,32.455
35.232,32.45
35.188,32.444
35.14,32.438
35.087,32.433
35.03,32.43
34.97,32.428
34.906,32.426
34.838,32.425
34.767,32.426
34.693,32.429
34.616,32.436
34.537,32.446
34.456,32.46
34.375,32.477
34.294,32.498
34.213,32.523
34.131,32.549
34.049,32.576
33.966,32.601
33.884,32.622
33.801,32.638
33.719,32.648
33.638,32.653
33.556,32.652
33.473,32.647
33.389,32.638
33.304,32.629
33.218,32.621
33.132,32.615
33.046,32.612
32.962,32.614
32.878,32.618
32.797,32.625
32.718,32.634
32.641,32.643
32.565,32.653
32.491,32.663
32.42,32.671
32.352,32.679
32.287,32.687
32.227,32.696
32.169,32.705
32.115,32.715
32.062,32.724
32.01,32.733
31.958,32.74
31.906,32.744
31.855,32.746
31.805,32.745
31.757,32.742
31.71,32.738
31.665,32.735
31.622,32.732
31.579,32.731
31.537,32.732
31.496,32.734
31.455,32.736
31.415,32.738
31.376,32.738
31.34,32.733
31.306,32.723
31.275,32.708
31.247,32.688
31.221,32.666
31.199,32.642
31.184,32.618
31.177,32.594
31.182,32.572
31.205,32.55
31.247,32.529
31.316,32.508
31.416,32.484
31.551,32.46
31.726,32.436
31.949,32.413
32.226,32.391
32.562,32.371
32.963,32.355
33.429,32.345
33.959,32.341
34.548,32.346
35.187,32.361
35.865,32.389
36.57,32.433
37.287,32.497
38.004,32.583
38.706,32.691
39.38,32.823
40.014,32.979
40.597,33.158
41.123,33.361
41.585,33.585
41.979,33.828
42.303,34.087
42.559,34.355
42.747,34.629
42.872,34.903
42.939,35.17
42.954,35.424
42.922,35.66
42.85,35.874
42.745,36.061
42.613,36.22
42.46,36.348
42.292,36.446
42.113,36.514
41.929,36.553
41.742,36.565
41.555,36.551
41.371,36.514
41.19,36.458
41.014,36.385
40.844,36.3
40.679,36.206
40.521,36.107
40.366,36.005
40.216,35.904
40.069,35.807
39.924,35.714
39.782,35.626
39.643,35.544
39.506,35.466
39.371,35.394
39.237,35.327
39.106,35.263
38.975,35.203
38.846,35.144
38.716,35.088
38.586,35.033
38.454,34.979
38.319,34.924
38.18,34.865
38.035,34.803
37.886,34.74
37.731,34.675
37.572,34.611
37.41,34.548
37.246,34.488
37.082,34.432
36.92,34.381
36.763,34.336
36.61,34.297
36.465,34.263
36.327,34.235
36.201,34.212
36.09,34.193
35.999,34.179
35.925,34.169
35.867,34.16
35.821,34.151
35.784,34.142
35.754,34.13
35.726,34.117
35.699,34.1
35.673,34.082
35.646,34.061
35.619,34.04
35.592,34.019
35.565,33.999
35.537,33.98
35.509,33.962
35.481,33.944
35.452,33.93
35.424,33.919
35.395,33.913
35.366,33.913
35.337,33.918
35.308,33.928
35.277,33.943
35.244,33.962
35.209,33.982
35.171,34.003
35.129,34.021
35.083,34.036
35.033,34.047
34.978,34.055
34.917,34.061
34.851,34.063
34.78,34.062
34.703,34.057
34.622,34.048
34.536,34.034
34.447,34.018
34.355,33.998
34.26,33.976
34.161,33.953
34.061,33.93
33.958,33.909
33.854,33.889
33.751,33.869
33.648,33.85
33.546,33.831
33.447,33.813
33.351,33.794
33.258,33.775
33.17,33.753
33.085,33.73
33.005,33.706
32.929,33.683
32.857,33.66
32.79,33.637
32.726,33.615
32.666,33.591
32.609,33.565
32.554,33.537
32.5,33.506
32.446,33.473
32.393,33.438
32.341,33.401
32.288,33.365
32.235,33.329
32.18,33.296
32.125,33.264
32.067,33.232
32.007,33.201
31.946,33.17
31.883,33.141
31.819,33.113
31.754,33.086
31.69,33.06
31.626,33.034
31.563,33.008
31.503,32.984
31.447,32.962
31.394,32.941
31.345,32.922
31.3,32.905
31.261,32.891
31.228,32.881
31.201,32.874
31.18,32.87
31.167,32.869
31.164,32.869
31.172,32.87
31.194,32.871
31.234,32.873
31.293,32.873
31.377,32.872
31.49,32.869
31.636,32.863
31.823,32.857
32.057,32.849
32.346,32.842
32.694,32.835
33.105,32.829
33.578,32.825
34.109,32.823
34.694,32.823
35.322,32.824
35.984,32.825
36.666,32.827
37.356,32.828
38.039,32.831
38.705,32.835
39.34,32.84
39.935,32.845
40.48,32.851
40.968,32.856
41.392,32.861
41.752,32.866
42.044,32.868
42.271,32.868
42.435,32.864
42.539,32.857
42.588,32.847
42.589,32.835
42.549,32.821
42.472,32.805
42.366,32.79
42.235,32.775
42.083,32.763
41.916,32.755
41.737,32.75
41.55,32.75
41.357,32.753
41.16,32.76
40.962,32.77
40.763,32.783
40.565,32.798
40.37,32.815
40.178,32.832
39.992,32.849
39.813,32.865
39.64,32.878
39.474,32.887
39.312,32.891
39.155,32.893
39.001,32.892
38.848,32.89
38.698,32.889
38.548,32.889
38.399,32.891
38.249,32.895
38.098,32.901
37.944,32.909
37.787,32.917
37.626,32.926
37.462,32.934
37.295,32.943
37.128,32.954
36.959,32.969
36.79,32.992
36.62,33.026
36.452,33.074
36.285,33.14
36.122,33.226
35.963,33.334
35.809,33.466
35.663,33.621
35.525,33.801
35.396,34.003
35.277,34.226
35.166,34.469
35.065,34.727
34.974,34.997
34.893,35.274
34.823,35.552
34.763,35.826
34.715,36.089
34.675,36.334
34.645,36.557
34.622,36.752
34.606,36.918
34.596,37.053
34.593,37.158
34.595,37.235
34.603,37.285
34.615,37.316
34.63,37.329
34.647,37.326
34.663,37.308
34.677,37.274
34.687,37.222
34.691,37.154
34.688,37.072
34.68,36.975
34.663,36.868
34.64,36.751
34.608,36.628
34.57,36.502
34.523,36.375
34.47,36.248
34.41,36.122
34.343,35.998
34.27,35.878
34.191,35.762
34.106,35.65
34.015,35.545
33.92,35.445
33.821,35.352
33.719,35.265
33.614,35.183
33.506,35.106
33.396,35.034
33.284,34.966
33.172,34.904
33.06,34.847
32.951,34.796
32.845,34.753
32.743,34.715
32.647,34.683
32.555,34.652
32.47,34.623
32.39,34.594
32.316,34.565
32.246,34.534
32.18,34.501
32.117,34.468
32.056,34.433
31.995,34.398
31.935,34.362
31.874,34.328
31.814,34.293
31.754,34.26
31.694,34.227
31.634,34.196
31.575,34.167
31.514,34.141
31.453,34.12
31.39,34.105
31.325,34.098
31.259,34.097
31.193,34.105
31.127,34.12
31.063,34.141
31.001,34.167
30.942,34.198
30.886,34.232
30.833,34.267
30.782,34.304
30.734,34.339
30.69,34.374
30.651,34.406
30.618,34.436
30.591,34.463
30.573,34.488
30.565,34.512
30.567,34.532
30.583,34.548
30.614,34.559
30.664,34.564
30.736,34.563
30.834,34.556
30.964,34.544
31.133,34.526
31.347,34.506
31.612,34.482
31.935,34.458
32.321,34.432
32.773,34.406
33.29,34.379
33.867,34.353
34.498,34.327
35.172,34.302
35.877,34.28
36.599,34.259
37.322,34.241
38.032,34.223
38.715,34.208
39.358,34.193
39.949,34.179
40.48,34.164
40.944,34.146
41.336,34.124
41.655,34.098
41.901,34.068
42.075,34.034
42.182,33.996
42.228,33.956
42.218,33.914
42.16,33.874
42.061,33.835
41.926,33.799
41.762,33.766
41.576,33.735
41.372,33.707
41.157,33.679
40.934,33.653
40.708,33.627
40.481,33.603
40.255,33.58
40.033,33.56
39.816,33.543
39.604,33.531
39.398,33.521
39.197,33.511
39.001,33.5
38.811,33.485
38.627,33.467
38.447,33.448
38.271,33.427
38.1,33.409
37.934,33.393
37.771,33.383
37.612,33.378
37.456,33.378
37.302,33.38
37.149,33.383
36.997,33.384
36.844,33.384
36.69,33.38
36.536,33.373
36.38,33.364
36.223,33.351
36.066,33.337
35.91,33.32
35.756,33.303
35.606,33.287
35.46,33.27
35.32,33.255
35.187,33.242
35.061,33.231
34.943,33.224
34.835,33.22
34.737,33.22
34.65,33.224
34.574,33.232
34.509,33.242
34.455,33.253
34.412,33.266
34.379,33.279
34.355,33.291
34.338,33.302
34.327,33.31
34.32,33.317
34.317,33.322
34.317,33.324
34.319,33.324
34.323,33.32
34.327,33.313
34.329,33.305
34.33,33.295
34.327,33.284
34.322,33.274
34.314,33.264
34.303,33.256
34.29,33.25
34.273,33.245
34.252,33.242
34.225,33.24
34.193,33.241
34.155,33.245
34.111,33.251
34.062,33.257
34.008,33.261
33.951,33.263
33.89,33.259
33.826,33.251
33.759,33.238
33.688,33.222
33.613,33.203
33.534,33.182
33.453,33.159
33.368,33.137
33.282,33.116
33.195,33.096
33.108,33.081
33.022,33.071
32.937,33.069
32.852,33.077
32.766,33.094
32.681,33.123
32.595,33.162
32.508,33.212
32.422,33.275
32.337,33.353
32.253,33.45
32.171,33.567
32.09,33.707
32.011,33.87
31.935,34.056
31.86,34.266
31.788,34.496
31.719,34.743
31.652,35.004
31.588,35.277
31.528,35.556
31.47,35.837
31.415,36.117
31.364,36.389
31.315,36.648
31.268,36.887
31.224,37.103
31.183,37.295
31.144,37.46
31.107,37.597
31.072,37.706
31.037,37.788
31.002,37.845
30.965,37.877
30.926,37.888
30.885,37.877
30.844,37.846
30.803,37.8
30.763,37.74
30.725,37.669
30.69,37.59
30.659,37.504
30.635,37.413
30.619,37.319
30.616,37.223
30.627,37.126
30.657,37.029
30.709,36.93
30.789,36.831
30.9,36.73
31.049,36.63
31.241,36.531
31.483,36.434
31.781,36.341
32.14,36.254
32.563,36.171
33.05,36.095
33.598,36.025
34.2,35.961
34.846,35.903
35.525,35.851
36.223,35.804
36.927,35.764
37.621,35.729
38.292,35.7
38.929,35.676
39.521,35.654
40.059,35.633
40.536,35.612
40.947,35.591
41.29,35.568
41.563,35.544
41.768,35.52
41.908,35.498
41.985,35.477
42.004,35.457
41.972,35.437
41.893,35.416
41.775,35.392
41.625,35.365
41.447,35.336
41.25,35.305
41.037,35.272
40.814,35.237
40.585,35.201
40.354,35.167
40.124,35.136
39.897,35.11
39.675,35.091
39.457,35.077
39.244,35.068
39.035,35.064
38.83,35.063
38.628,35.066
38.428,35.071
38.23,35.079
38.033,35.089
37.836,35.101
37.642,35.116
37.45,35.132
37.261,35.147
37.076,35.16
36.894,35.168
36.715,35.171
36.539,35.168
36.365,35.16
36.193,35.147
36.024,35.131
35.858,35.111
35.697,35.09
35.54,35.069
35.389,35.048
35.243,35.027
35.103,35.005
34.969,34.983
34.841,34.961
34.722,34.941
34.612,34.923
34.511,34.904
34.421,34.886
34.342,34.867
34.274,34.846
34.217,34.825
34.172,34.802
34.138,34.777
34.116,34.75
34.105,34.719
34.106,34.686
34.117,34.651
34.137,34.615
34.165,34.578
34.207,34.539
34.261,34.501
34.327,34.462
34.401,34.425
34.476,34.388
34.55,34.352
34.616,34.318
34.671,34.286
34.713,34.251
34.738,34.207
34.746,34.153
34.738,34.092
34.713,34.027
34.672,33.962
34.619,33.902
34.553,33.849
34.479,33.805
34.397,33.771
34.31,33.748
34.218,33.734
34.124,33.73
34.029,33.734
33.934,33.743
33.84,33.756
33.747,33.77
33.654,33.783
33.563,33.797
33.472,33.809
33.382,33.819
33.294,33.826
33.208,33.832
33.124,33.836
33.042,33.838
32.962,33.839
32.883,33.839
32.804,33.838
32.726,33.835
32.648,33.831
32.57,33.825
32.494,33.819
32.42,33.811
32.348,33.803
32.278,33.794
32.211,33.785
32.146,33.775
32.083,33.766
32.021,33.756
31.96,33.745
31.902,33.732
31.844,33.719
31.789,33.707
31.734,33.698
31.681,33.693
31.629,33.691
31.578,33.694
31.527,33.699
31.475,33.706
31.422,33.713
31.368,33.719
31.315,33.722
31.262,33.724
31.21,33.725
31.161,33.725
31.113,33.724
31.068,33.721
31.026,33.715
30.987,33.706
30.951,33.693
30.918,33.677
30.888,33.658
30.861,33.637
30.836,33.616
30.816,33.598
30.799,33.584
30.787,33.574
30.783,33.568
30.787,33.565
30.802,33.564
30.831,33.566
30.878,33.57
30.945,33.577
31.038,33.585
31.163,33.593
31.324,33.6
31.531,33.606
31.791,33.61
32.112,33.614
32.497,33.619
32.951,33.628
33.47,33.642
34.051,33.665
34.684,33.699
35.358,33.749
36.061,33.815
36.779,33.901
37.497,34.009
38.199,34.14
38.871,34.297
39.5,34.479
40.075,34.688
40.588,34.92
41.035,35.173
41.411,35.445
41.715,35.73
41.946,36.023
42.108,36.317
42.204,36.607
42.238,36.886
42.218,37.148
42.148,37.388
42.036,37.603
41.887,37.79
41.707,37.946
41.502,38.071
41.279,38.166
41.041,38.231
40.794,38.269
40.541,38.281
40.287,38.269
40.033,38.235
39.781,38.182
39.533,38.111
39.291,38.027
39.055,37.933
38.825,37.832
38.602,37.726
38.384,37.619
38.173,37.513
37.967,37.409
37.767,37.31
37.57,37.216
37.377,37.127
37.186,37.044
36.998,36.966
36.813,36.895
36.63,36.829
36.449,36.768
36.27,36.711
36.092,36.655
35.916,36.6
35.742,36.546
35.571,36.494
35.403,36.442
35.24,36.391
35.083,36.341
34.934,36.292
34.793,36.246
34.662,36.199
34.542,36.153
34.434,36.104
34.338,36.054
34.255,36.002
34.184,35.95
34.126,35.898
34.081,35.847
34.048,35.798
34.026,35.752
34.016,35.71
34.015,35.671
34.023,35.636
34.04,35.605
34.065,35.577
34.096,35.554
34.131,35.538
34.17,35.529
34.21,35.527
34.251,35.531
34.289,35.54
34.324,35.553
34.354,35.568
34.378,35.584
34.394,35.601
34.402,35.618
34.403,35.636
34.396,35.652
34.382,35.668
34.361,35.684
34.332,35.698
34.295,35.711
34.251,35.721
34.2,35.73
34.142,35.737
34.077,35.743
34.007,35.748
33.931,35.753
33.851,35.757
33.768,35.762
33.683,35.766
33.597,35.771
33.509,35.776
33.42,35.781
33.329,35.786
33.238,35.788
33.145,35.787
33.052,35.782
32.959,35.774
32.867,35.762
32.775,35.747
32.684,35.728
32.594,35.705
32.506,35.679
32.421,35.649
32.339,35.615
32.259,35.576
32.182,35.533
32.107,35.483
32.034,35.429
31.962,35.372
31.893,35.315
31.826,35.258
31.762,35.205
31.701,35.156
31.642,35.113
31.585,35.077
31.529,35.047
31.473,35.023
31.418,35.005
31.363,34.992
31.308,34.984
31.256,34.978
31.207,34.973
31.162,34.965
31.122,34.953
31.086,34.935
31.054,34.912
31.023,34.885
30.995,34.853
30.967,34.819
30.94,34.781
30.913,34.742
30.887,34.702
30.861,34.662
30.835,34.622
30.809,34.584
30.782,34.548
30.754,34.516
30.726,34.489
30.698,34.469
30.672,34.454
30.646,34.444
30.622,34.436
30.599,34.432
30.578,34.429
30.56,34.426
30.545,34.424
30.536,34.422
30.535,34.421
30.544,34.419
30.566,34.416
30.604,34.413
30.661,34.407
30.743,34.398
30.853,34.386
30.997,34.371
31.179,34.355
31.405,34.337
31.681,34.319
32.013,34.302
32.408,34.285
32.867,34.272
33.391,34.262
33.975,34.254
34.613,34.25
35.293,34.248
36.003,34.248
36.729,34.251
37.455,34.256
38.167,34.262
38.849,34.268
39.489,34.274
40.074,34.278
40.596,34.279
41.047,34.278
41.424,34.273
41.726,34.266
41.953,34.256
42.106,34.245
42.19,34.232
42.21,34.219
42.171,34.205
42.081,34.19
41.947,34.174
41.778,34.158
41.579,34.146
41.356,34.138
41.116,34.137
40.862,34.143
40.6,34.158
40.335,34.183
40.07,34.22
39.807,34.269
39.549,34.33
39.294,34.406
39.045,34.497
38.8,34.607
38.56,34.738
38.325,34.89
38.096,35.064
37.874,35.259
37.661,35.473
37.459,35.704
37.266,35.948
37.082,36.203
36.904,36.463
36.73,36.723
36.558,36.98
36.384,37.231
36.207,37.471
36.025,37.698
35.84,37.908
35.652,38.098
35.464,38.267
35.277,38.413
35.095,38.534
34.919,38.631
34.752,38.704
34.595,38.754
34.45,38.784
34.318,38.794
34.199,38.788
34.094,38.769
34.004,38.737
33.928,38.696
33.867,38.647
33.82,38.592
33.786,38.534
33.763,38.472
33.752,38.408
33.749,38.34
33.755,38.269
33.767,38.198
33.787,38.127
33.813,38.057
33.844,37.99
33.879,37.923
33.918,37.853
33.958,37.776
33.999,37.693
34.039,37.605
34.076,37.516
34.111,37.428
34.14,37.344
34.165,37.265
34.183,37.193
34.196,37.128
34.201,37.071
34.197,37.021
34.185,36.976
34.165,36.937
34.135,36.903
34.099,36.873
34.055,36.846
34.006,36.821
33.95,36.797
33.89,36.773
33.825,36.749
33.755,36.725
33.682,36.704
33.605,36.685
33.526,36.668
33.447,36.655
33.367,36.644
33.288,36.634
33.211,36.627
33.134,36.62
33.059,36.615
32.984,36.61
32.908,36.609
32.833,36.611
32.757,36.617
32.68,36.627
32.603,36.639
32.526,36.654
32.449,36.672
32.371,36.691
32.293,36.712
32.214,36.733
32.134,36.756
32.054,36.779
31.976,36.802
31.898,36.823
31.823,36.843
31.752,36.859
31.685,36.871
31.622,36.879
31.563,36.885
31.509,36.888
31.458,36.889
31.411,36.887
31.367,36.882
31.326,36.875
31.288,36.865
31.252,36.854
31.219,36.841
31.19,36.826
31.166,36.809
31.146,36.79
31.129,36.769
31.114,36.747
31.1,36.722
31.087,36.693
31.073,36.662
31.058,36.627
31.04,36.59
31.021,36.552
31,36.514
30.977,36.476
30.952,36.439
30.925,36.403
30.897,36.368
30.868,36.333
30.839,36.296
30.808,36.257
30.778,36.216
30.749,36.172
30.722,36.127
30.699,36.083
30.681,36.039
30.671,35.998
30.669,35.958
30.68,35.919
30.706,35.881
30.75,35.843
30.815,35.806
30.906,35.771
31.027,35.738
31.181,35.709
31.371,35.684
31.603,35.664
31.881,35.648
32.209,35.635
32.593,35.624
33.035,35.613
33.536,35.601
34.094,35.59
34.701,35.578
35.35,35.565
36.028,35.553
36.722,35.54
37.419,35.528
38.103,35.516
38.76,35.506
39.377,35.494
39.942,35.482
40.446,35.467
40.881,35.45
41.244,35.431
41.531,35.412
41.743,35.391
41.882,35.371
41.953,35.351
41.96,35.334
41.91,35.321
41.809,35.31
41.666,35.301
41.487,35.293
41.279,35.287
41.048,35.281
40.801,35.276
40.542,35.273
40.276,35.272
40.006,35.273
39.734,35.276
39.464,35.28
39.197,35.286
38.933,35.291
38.674,35.294
38.419,35.292
38.17,35.284
37.925,35.27
37.684,35.252
37.448,35.229
37.217,35.202
36.991,35.171
36.77,35.136
36.555,35.098
36.344,35.058
36.138,35.017
35.936,34.976
35.739,34.938
35.547,34.905
35.361,34.88
35.181,34.865
35.008,34.862
34.842,34.874
34.685,34.901
34.537,34.947
34.398,35.012
34.269,35.1
34.151,35.211
34.044,35.347
33.948,35.509
33.862,35.696
33.788,35.908
33.724,36.143
33.67,36.397
33.627,36.668
33.594,36.951
33.57,37.243
33.555,37.538
33.55,37.831
33.553,38.118
33.565,38.393
33.585,38.654
33.613,38.897
33.648,39.12
33.689,39.319
33.735,39.494
33.784,39.643
33.835,39.766
33.886,39.861
33.937,39.93
33.985,39.977
34.03,40.003
34.069,40.01
34.102,40.002
34.129,39.981
34.148,39.95
34.16,39.91
34.162,39.865
34.156,39.815
34.143,39.762
34.122,39.71
34.094,39.658
34.06,39.608
34.019,39.559
33.972,39.511
33.918,39.464
33.859,39.416
33.796,39.367
33.728,39.317
33.659,39.267
33.587,39.217
33.515,39.168
33.441,39.12
33.366,39.075
33.291,39.033
33.216,38.995
33.14,38.961
33.065,38.928
32.989,38.895
32.914,38.863
32.839,38.83
32.765,38.798
32.692,38.765
32.619,38.73
32.548,38.693
32.477,38.652
32.407,38.609
32.338,38.562
32.271,38.512
32.204,38.458
32.139,38.401
32.075,38.341
32.012,38.28
31.949,38.217
31.887,38.154
31.827,38.091
31.769,38.03
31.712,37.973
31.659,37.923
31.608,37.879
31.56,37.844
31.516,37.815
31.474,37.793
31.435,37.777
31.4,37.767
31.366,37.763
31.336,37.764
31.307,37.771
31.281,37.782
31.257,37.796
31.234,37.814
31.213,37.833
31.193,37.853
31.174,37.872
31.155,37.891
31.136,37.908
31.116,37.922
31.094,37.933
31.072,37.941
31.049,37.944
31.027,37.942
31.006,37.936
30.985,37.925
30.967,37.911
30.951,37.893
30.936,37.872
30.924,37.846
30.913,37.816
30.904,37.781
30.896,37.743
30.89,37.7
30.886,37.654
30.885,37.605
30.887,37.554
30.892,37.502
30.898,37.451
30.905,37.401
30.91,37.351
30.914,37.302
30.917,37.253
30.918,37.205
30.917,37.157
30.914,37.111
30.91,37.065
30.904,37.02
30.898,36.977
30.892,36.936
30.885,36.897
30.877,36.86
30.869,36.823
30.862,36.785
30.855,36.745
30.85,36.705
30.848,36.665
30.85,36.625
30.857,36.585
30.872,36.545
30.897,36.505
30.935,36.465
30.99,36.424
31.064,36.382
31.163,36.339
31.288,36.296
31.445,36.253
31.636,36.211
31.867,36.171
32.141,36.132
32.464,36.094
32.841,36.057
33.277,36.019
33.773,35.981
34.33,35.943
34.943,35.907
35.604,35.872
36.304,35.84
37.029,35.81
37.764,35.783
38.493,35.756
39.201,35.732
39.875,35.707
40.499,35.684
41.063,35.66
41.558,35.638
41.979,35.618
42.322,35.598
42.586,35.58
42.772,35.562
42.882,35.545
42.923,35.529
42.9,35.512
42.819,35.495
42.689,35.477
42.516,35.457
42.307,35.434
42.068,35.409
41.807,35.381
41.529,35.351
41.24,35.321
40.944,35.291
40.646,35.264
40.35,35.24
40.056,35.221
39.768,35.206
39.486,35.195
39.211,35.186
38.945,35.178
38.688,35.171
38.44,35.165
38.201,35.161
37.97,35.16
37.746,35.16
37.528,35.16
37.315,35.16
37.107,35.157
36.905,35.15
36.707,35.138
36.514,35.121
36.325,35.098
36.141,35.071
35.962,35.042
35.789,35.014
35.622,34.988
35.463,34.965
35.312,34.947
35.17,34.935
35.039,34.933
34.92,34.942
34.812,34.966
34.716,35.007
34.632,35.069
34.558,35.155
34.495,35.268
34.443,35.411
34.401,35.584
34.371,35.786
34.351,36.015
34.341,36.271
34.34,36.549
34.347,36.846
34.361,37.157
34.382,37.476
34.408,37.798
34.439,38.12
34.474,38.436
34.514,38.742
34.556,39.032
34.601,39.302
34.646,39.549
34.691,39.77
34.733,39.964
34.771,40.129
34.804,40.264
34.83,40.371
34.851,40.448
34.866,40.498
34.875,40.522
34.879,40.524
34.878,40.507
34.871,40.473
34.86,40.428
34.844,40.374
34.823,40.317
34.797,40.259
34.766,40.202
34.729,40.146
34.687,40.093
34.639,40.041
34.586,39.992
34.527,39.946
34.464,39.904
34.396,39.866
34.324,39.833
34.247,39.806
34.167,39.783
34.083,39.762
33.997,39.741
33.911,39.718
33.824,39.694
33.738,39.671
33.653,39.649
33.569,39.63
33.487,39.612
33.406,39.597
33.326,39.584
33.248,39.572
33.17,39.561
33.093,39.55
33.017,39.538
32.943,39.525
32.87,39.51
32.799,39.492
32.73,39.469
32.663,39.44
32.598,39.404
32.535,39.36
32.476,39.309
32.419,39.252
32.366,39.191
32.316,39.128
32.269,39.066
32.224,39.003
32.182,38.942
32.143,38.883
32.105,38.825
32.07,38.772
32.037,38.723
32.005,38.68
31.974,38.645
31.943,38.616
31.913,38.594
31.884,38.578
31.855,38.566
31.828,38.556
31.802,38.547
31.778,38.539
31.755,38.534
31.734,38.532
31.714,38.532
31.694,38.533
31.675,38.532
31.657,38.529
31.639,38.525
31.623,38.517
31.608,38.507
31.593,38.494
31.579,38.477
31.565,38.456
31.551,38.432
31.538,38.403
31.526,38.37
31.515,38.332
31.506,38.289
31.5,38.241
31.496,38.191
31.496,38.138
31.501,38.084
31.513,38.031
31.529,37.978
31.549,37.926
31.569,37.874
31.588,37.821
31.605,37.766
31.619,37.708
31.627,37.646
31.631,37.583
31.63,37.517
31.623,37.448
31.611,37.377
31.595,37.305
31.576,37.232
31.554,37.16
31.532,37.088
31.51,37.019
31.489,36.954
31.47,36.893
31.454,36.837
31.44,36.787
31.429,36.742
31.421,36.702
31.416,36.668
31.414,36.637
31.415,36.609
31.418,36.58
31.425,36.551
31.436,36.52
31.452,36.489
31.474,36.456
31.507,36.422
31.554,36.386
31.62,36.348
31.707,36.311
31.821,36.274
31.965,36.239
32.143,36.207
32.357,36.178
32.61,36.152
32.905,36.13
33.245,36.109
33.634,36.089
34.074,36.068
34.566,36.045
35.11,36.02
35.7,35.995
36.33,35.97
36.99,35.945
37.668,35.92
38.35,35.895
39.021,35.869
39.667,35.843
40.275,35.817
40.834,35.789
41.335,35.761
41.77,35.734
42.136,35.71
42.429,35.69
42.65,35.675
42.8,35.663
42.882,35.654
42.902,35.647
42.866,35.641
42.78,35.636
42.651,35.631
42.486,35.625
42.291,35.619
42.074,35.613
41.839,35.607
41.592,35.601
41.335,35.592
41.074,35.576
40.809,35.546
40.545,35.499
40.282,35.438
40.023,35.368
39.769,35.293
39.52,35.217
39.278,35.146
39.041,35.08
38.811,35.024
38.588,34.979
38.371,34.945
38.16,34.921
37.953,34.908
37.749,34.904
37.549,34.907
37.351,34.914
37.157,34.925
36.968,34.935
36.784,34.946
36.607,34.955
36.435,34.963
36.27,34.971
36.11,34.981
35.956,34.994
35.808,35.014
35.667,35.043
35.533,35.083
35.408,35.136
35.292,35.207
35.187,35.299
35.093,35.413
35.01,35.552
34.939,35.717
34.879,35.909
34.831,36.125
34.795,36.364
34.77,36.622
34.756,36.896
34.754,37.182
34.761,37.475
34.777,37.771
34.801,38.067
34.831,38.357
34.867,38.636
34.908,38.903
34.952,39.153
34.997,39.386
35.044,39.598
35.09,39.787
35.134,39.953
35.175,40.096
35.212,40.216
35.245,40.315
35.274,40.393
35.299,40.45
35.318,40.488
35.331,40.508
35.339,40.511
35.341,40.5
35.337,40.476
35.328,40.443
35.312,40.403
35.29,40.359
35.261,40.314
35.224,40.269
35.18,40.225
35.129,40.184
35.072,40.146
35.008,40.111
34.94,40.081
34.869,40.057
34.795,40.037
34.719,40.02
34.643,40.003
34.566,39.985
34.488,39.966
34.408,39.948
34.327,39.929
34.244,39.91
34.16,39.891
34.075,39.872
33.992,39.85
33.91,39.825
33.83,39.796
33.752,39.762
33.676,39.723
33.601,39.679
33.527,39.632
33.456,39.581
33.388,39.529
33.323,39.475
33.261,39.418
33.202,39.36
33.146,39.299
33.094,39.235
33.044,39.17
32.995,39.103
32.948,39.035
32.901,38.968
32.855,38.902
32.81,38.838
32.766,38.777
32.723,38.72
32.68,38.668
32.638,38.622
32.595,38.582
32.553,38.55
32.511,38.526
32.469,38.51
32.427,38.498
32.386,38.489
32.347,38.483
32.309,38.477
32.274,38.471
32.24,38.465
32.208,38.459
32.178,38.452
32.149,38.445
32.122,38.437
32.098,38.429
32.076,38.419
32.055,38.406
32.036,38.39
32.019,38.37
32.003,38.347
31.987,38.321
31.972,38.292
31.956,38.26
31.939,38.225
31.921,38.189
31.901,38.153
31.882,38.116
31.862,38.079
31.844,38.042
31.827,38.004
31.812,37.964
31.801,37.921
31.792,37.877
31.786,37.829
31.782,37.778
31.78,37.725
31.779,37.671
31.779,37.619
31.78,37.568
31.783,37.519
31.787,37.471
31.791,37.425
31.797,37.378
31.802,37.331
31.807,37.285
31.809,37.24
31.81,37.195
31.808,37.15
31.804,37.105
31.799,37.059
31.793,37.012
31.787,36.963
31.78,36.911
31.773,36.855
31.764,36.794
31.754,36.731
31.743,36.665
31.732,36.598
31.72,36.53
31.709,36.461
31.702,36.392
31.7,36.325
31.707,36.26
31.725,36.198
31.756,36.139
31.804,36.084
31.873,36.032
31.966,35.986
32.087,35.945
32.24,35.91
32.428,35.879
32.656,35.852
32.924,35.828
33.236,35.806
33.593,35.785
33.995,35.765
34.444,35.742
34.939,35.716
35.478,35.688
36.056,35.657
36.667,35.626
37.303,35.592
37.955,35.556
38.61,35.517
39.257,35.473
39.884,35.425
40.478,35.374
41.028,35.32
41.525,35.267
41.962,35.215
42.332,35.167
42.631,35.125
42.859,35.088
43.016,35.057
43.106,35.031
43.132,35.008
43.099,34.988
43.015,34.969
42.886,34.952
42.717,34.936
42.517,34.92
42.291,34.904
42.046,34.888
41.788,34.871
41.522,34.854
41.251,34.836
40.98,34.814
40.712,34.788
40.448,34.759
40.191,34.726
39.941,34.691
39.698,34.653
39.464,34.613
39.237,34.572
39.015,34.529
38.799,34.485
38.588,34.441
38.38,34.396
38.178,34.351
37.979,34.308
37.785,34.267
37.595,34.229
37.411,34.197
37.231,34.169
37.056,34.146
36.888,34.127
36.726,34.114
36.572,34.107
36.425,34.11
36.286,34.122
36.155,34.146
36.031,34.185
35.914,34.24
35.805,34.314
35.702,34.411
35.605,34.53
35.515,34.673
35.432,34.842
35.356,35.035
35.289,35.254
35.232,35.497
35.186,35.762
35.151,36.046
35.128,36.346
35.118,36.658
35.118,36.978
35.129,37.3
35.148,37.619
35.174,37.931
35.206,38.23
35.242,38.515
35.28,38.782
35.319,39.029
35.358,39.253
35.396,39.453
35.433,39.628
35.467,39.779
35.499,39.906
35.528,40.01
35.554,40.09
35.575,40.148
35.591,40.186
35.6,40.206
35.604,40.21
35.601,40.201
35.593,40.181
35.58,40.152
35.563,40.117
35.541,40.078
35.513,40.04
35.479,40.005
35.438,39.972
35.389,39.941
35.334,39.91
35.274,39.878
35.21,39.845
35.144,39.81
35.076,39.774
35.006,39.737
34.935,39.699
34.864,39.661
34.791,39.622
34.717,39.584
34.642,39.545
34.568,39.507
34.494,39.47
34.421,39.434
34.349,39.4
34.28,39.367
34.212,39.334
34.145,39.299
34.08,39.261
34.016,39.22
33.953,39.177
33.891,39.132
33.83,39.087
33.771,39.039
33.713,38.99
33.656,38.938
33.601,38.882
33.546,38.823
33.491,38.76
33.437,38.694
33.382,38.627
33.327,38.558
33.272,38.492
33.218,38.428
33.166,38.369
33.115,38.313
33.066,38.26
33.019,38.211
32.973,38.165
32.929,38.123
32.887,38.084
32.847,38.048
32.808,38.015
32.771,37.985
32.735,37.957
32.701,37.935
32.668,37.917
32.637,37.904
32.606,37.893
32.578,37.885
32.55,37.878
32.524,37.872
32.5,37.866
32.478,37.858
32.458,37.847
32.44,37.833
32.424,37.817
32.411,37.798
32.399,37.777
32.389,37.753
32.382,37.727
32.376,37.697
32.371,37.665
32.367,37.629
32.363,37.589
32.361,37.544
32.36,37.494
32.36,37.44
32.361,37.381
32.364,37.319
32.367,37.255
32.372,37.187
32.375,37.118
32.378,37.048
32.379,36.976
32.377,36.902
32.373,36.828
32.366,36.752
32.357,36.676
32.348,36.602
32.338,36.531
32.328,36.463
32.318,36.399
32.309,36.336
32.301,36.275
32.295,36.214
32.29,36.153
32.287,36.091
32.286,36.029
32.288,35.969
32.292,35.91
32.298,35.854
32.305,35.801
32.313,35.749
32.324,35.699
32.339,35.65
32.361,35.599
32.392,35.548
32.437,35.497
32.498,35.445
32.581,35.394
32.689,35.343
32.826,35.293
32.996,35.243
33.201,35.193
33.445,35.141
33.728,35.089
34.053,35.037
34.42,34.985
34.831,34.935
35.286,34.886
35.782,34.841
36.317,34.797
36.885,34.754
37.478,34.712
38.087,34.672
38.701,34.633
39.309,34.597
39.898,34.563
40.458,34.53
40.977,34.499
41.447,34.47
41.86,34.444
42.212,34.419
42.499,34.395
42.719,34.372
42.875,34.349
42.968,34.328
43.002,34.309
42.983,34.292
42.915,34.275
42.806,34.253
42.66,34.224
42.485,34.188
42.286,34.146
42.067,34.1
41.834,34.053
41.59,34.006
41.339,33.96
41.085,33.918
40.83,33.881
40.577,33.849
40.327,33.822
40.082,33.799
39.843,33.779
39.61,33.761
39.385,33.743
39.167,33.726
38.956,33.711
38.753,33.697
38.556,33.685
38.364,33.677
38.178,33.675
37.997,33.679
37.82,33.692
37.647,33.714
37.477,33.749
37.312,33.8
37.152,33.87
36.998,33.961
36.849,34.075
36.707,34.213
36.57,34.373
36.44,34.554
36.318,34.755
36.202,34.974
36.094,35.209
35.995,35.458
35.903,35.719
35.821,35.987
35.748,36.262
35.687,36.538
35.636,36.81
35.597,37.076
35.571,37.33
35.557,37.569
35.553,37.791
35.56,37.994
35.575,38.177
35.597,38.34
35.625,38.484
35.659,38.608
35.697,38.713
35.739,38.8
35.785,38.868
35.834,38.92
35.884,38.957
35.934,38.979
35.982,38.99
36.027,38.99
36.068,38.981
36.104,38.962
36.134,38.936
36.158,38.903
36.176,38.865
36.187,38.825
36.193,38.783
36.193,38.74
36.188,38.697
36.177,38.654
36.161,38.614
36.138,38.577
36.108,38.544
36.072,38.514
36.029,38.486
35.981,38.461
35.926,38.439
35.867,38.418
35.803,38.399
35.737,38.38
35.667,38.361
35.595,38.342
35.519,38.323
35.439,38.3
35.356,38.273
35.27,38.241
35.182,38.202
35.092,38.157
35.002,38.107
34.914,38.052
34.827,37.993
34.743,37.931
34.662,37.865
34.582,37.798
34.505,37.728
34.428,37.658
34.352,37.588
34.278,37.519
34.206,37.452
34.136,37.389
34.07,37.33
34.008,37.278
33.949,37.232
33.895,37.193
33.845,37.161
33.797,37.133
33.75,37.108
33.705,37.085
33.66,37.062
33.616,37.039
33.573,37.016
33.532,36.992
33.492,36.97
33.455,36.951
33.419,36.933
33.385,36.917
33.352,36.9
33.32,36.882
33.288,36.862
33.256,36.84
33.226,36.816
33.196,36.791
33.168,36.765
33.141,36.739
33.114,36.714
33.088,36.689
33.063,36.663
33.039,36.635
33.018,36.604
32.998,36.567
32.98,36.528
32.965,36.485
32.953,36.44
32.944,36.392
32.938,36.343
32.934,36.292
32.931,36.239
32.928,36.185
32.926,36.128
32.924,36.067
32.922,36.001
32.919,35.933
32.916,35.862
32.912,35.791
32.908,35.719
32.903,35.647
32.897,35.575
32.89,35.504
32.881,35.433
32.871,35.363
32.861,35.293
32.85,35.225
32.84,35.158
32.831,35.094
32.825,35.037
32.822,34.986
32.824,34.942
32.834,34.904
32.853,34.87
32.884,34.838
32.932,34.808
32.998,34.779
33.087,34.75
33.201,34.721
33.344,34.691
33.519,34.661
33.729,34.632
33.975,34.602
34.261,34.57
34.59,34.536
34.964,34.499
35.386,34.461
35.854,34.421
36.368,34.381
36.924,34.341
37.515,34.301
38.134,34.26
38.768,34.219
39.405,34.179
40.033,34.139
40.64,34.102
41.215,34.067
41.747,34.034
42.228,34.004
42.652,33.978
43.013,33.955
43.31,33.936
43.541,33.918
43.71,33.901
43.817,33.883
43.867,33.866
43.865,33.847
43.814,33.827
43.721,33.806
43.591,33.783
43.432,33.761
43.246,33.739
43.038,33.718
42.814,33.697
42.578,33.677
42.334,33.656
42.087,33.635
41.839,33.614
41.593,33.593
41.352,33.571
41.116,33.547
40.888,33.515
40.668,33.478
40.459,33.435
40.259,33.39
40.068,33.344
39.886,33.301
39.711,33.263
39.542,33.231
39.377,33.205
39.217,33.185
39.059,33.17
38.903,33.159
38.748,33.149
38.595,33.141
38.442,33.134
38.291,33.126
38.142,33.117
37.996,33.106
37.855,33.091
37.717,33.074
37.585,33.055
37.457,33.034
37.335,33.013
37.219,32.994
37.109,32.977
37.007,32.963
36.914,32.954
36.831,32.949
36.758,32.949
36.695,32.959
36.644,32.979
36.603,33.015
36.571,33.069
36.548,33.145
36.534,33.245
36.527,33.373
36.526,33.53
36.532,33.716
36.543,33.931
36.558,34.17
36.576,34.431
36.597,34.712
36.621,35.01
36.646,35.321
36.673,35.641
36.7,35.966
36.727,36.292
36.753,36.613
36.777,36.926
36.796,37.226
36.811,37.508
36.821,37.771
36.824,38.01
36.821,38.225
36.809,38.415
36.791,38.579
36.766,38.719
36.735,38.835
36.698,38.931
36.655,39.006
36.606,39.063
36.55,39.105
36.488,39.131
36.419,39.142
36.345,39.14
36.265,39.124
36.181,39.098
36.093,39.064
36.003,39.026
35.91,38.987
35.816,38.949
35.72,38.912
35.622,38.878
35.522,38.847
35.421,38.817
35.321,38.789
35.222,38.761
35.125,38.733
35.03,38.707
34.937,38.683
34.846,38.661
34.759,38.642
34.674,38.623
34.591,38.605
34.512,38.588
34.435,38.57
34.361,38.552
34.29,38.533
34.221,38.511
34.154,38.487
34.087,38.457
34.023,38.422
33.959,38.38
33.898,38.33
33.839,38.27
33.782,38.204
33.728,38.131
33.675,38.054
33.625,37.974
33.576,37.893
33.528,37.812
33.482,37.732
33.438,37.653
33.396,37.576
33.357,37.502
33.321,37.432
33.289,37.368
33.261,37.311
33.235,37.262
33.212,37.221
33.19,37.188
33.17,37.162
33.151,37.142
33.132,37.125
33.114,37.111
33.097,37.098
33.08,37.086
33.064,37.075
33.048,37.064
33.033,37.054
33.017,37.044
33,37.032
32.982,37.017
32.961,37
32.938,36.977
32.912,36.949
32.884,36.917
32.855,36.88
32.825,36.841
32.795,36.799
32.766,36.756
32.74,36.711
32.717,36.666
32.697,36.621
32.682,36.575
32.673,36.529
32.67,36.483
32.674,36.437
32.685,36.39
32.706,36.344
32.738,36.298
32.782,36.251
32.841,36.2
32.918,36.147
33.017,36.09
33.142,36.032
33.297,35.97
33.487,35.907
33.717,35.84
33.989,35.77
34.308,35.696
34.678,35.62
35.1,35.544
35.574,35.466
36.1,35.388
36.674,35.31
37.288,35.233
37.934,35.157
38.601,35.084
39.278,35.015
39.953,34.948
40.612,34.886
41.244,34.829
41.838,34.778
42.385,34.733
42.878,34.693
43.31,34.657
43.679,34.623
43.982,34.59
44.22,34.558
44.393,34.526
44.506,34.493
44.561,34.458
44.564,34.421
44.519,34.382
44.434,34.34
44.313,34.295
44.164,34.248
43.992,34.199
43.802,34.15
43.601,34.102
43.393,34.057
43.181,34.015
42.968,33.978
42.758,33.945
42.553,33.915
42.354,33.888
42.163,33.863
41.98,33.84
41.806,33.817
41.639,33.796
41.481,33.774
41.329,33.752
41.185,33.73
41.046,33.706
40.911,33.681
40.781,33.654
40.654,33.625
40.53,33.593
40.408,33.558
40.288,33.521
40.167,33.482
40.047,33.443
39.924,33.401
39.8,33.355
39.674,33.3
39.544,33.24
39.413,33.175
39.28,33.112
39.144,33.054
39.009,33.005
38.873,32.966
38.739,32.937
38.607,32.917
38.478,32.905
38.353,32.897
38.232,32.893
38.115,32.89
38.004,32.887
37.898,32.882
37.8,32.875
37.71,32.866
37.629,32.856
37.559,32.845
37.498,32.833
37.448,32.82
37.407,32.806
37.375,32.791
37.351,32.776
37.334,32.761
37.323,32.744
37.316,32.725
37.312,32.706
37.308,32.686
37.304,32.666
37.298,32.647
37.29,32.627
37.279,32.608
37.264,32.588
37.245,32.567
37.223,32.546
37.197,32.524
37.166,32.502
37.131,32.481
37.09,32.461
37.044,32.442
36.992,32.425
36.935,32.409
36.873,32.396
36.807,32.385
36.738,32.375
36.665,32.368
36.591,32.362
36.514,32.358
36.433,32.356
36.35,32.355
36.263,32.356
36.174,32.355
36.081,32.354
35.987,32.35
35.891,32.343
35.794,32.333
35.696,32.318
35.595,32.301
35.494,32.28
35.391,32.256
35.288,32.232
35.186,32.208
35.084,32.187
34.984,32.172
34.885,32.166
34.789,32.172
34.694,32.196
34.603,32.24
34.514,32.307
34.429,32.396
34.349,32.506
34.273,32.638
34.201,32.791
34.133,32.965
34.069,33.163
34.007,33.383
33.946,33.626
33.886,33.889
33.828,34.172
33.77,34.473
33.714,34.789
33.658,35.116
33.604,35.45
33.551,35.785
33.499,36.117
33.446,36.443
33.393,36.76
33.34,37.065
33.286,37.356
33.232,37.629
33.18,37.883
33.129,38.114
33.081,38.321
33.035,38.502
32.992,38.657
32.95,38.786
32.91,38.891
32.871,38.974
32.834,39.038
32.799,39.084
32.767,39.116
32.737,39.135
32.71,39.143
32.684,39.139
32.661,39.126
32.64,39.105
32.62,39.078
32.601,39.044
32.584,39.005
32.569,38.963
32.555,38.92
32.542,38.877
32.53,38.836
32.519,38.797
32.509,38.76
32.5,38.726
32.492,38.694
32.486,38.664
32.48,38.636
32.476,38.611
32.471,38.588
32.465,38.566
32.457,38.546
32.446,38.527
32.432,38.51
32.416,38.491
32.4,38.47
32.383,38.446
32.367,38.419
32.349,38.387
32.331,38.351
32.312,38.31
32.292,38.265
32.271,38.216
32.249,38.162
32.228,38.105
32.208,38.044
32.19,37.981
32.175,37.916
32.163,37.853
32.154,37.792
32.15,37.736
32.151,37.683
32.159,37.633
32.176,37.586
32.206,37.541
32.253,37.498
32.32,37.457
32.414,37.419
32.537,37.383
32.695,37.35
32.891,37.319
33.13,37.291
33.416,37.265
33.756,37.239
34.154,37.213
34.613,37.187
35.133,37.16
35.714,37.133
36.348,37.106
37.027,37.08
37.74,37.054
38.474,37.029
39.216,37.002
39.951,36.972
40.664,36.94
41.342,36.904
41.973,36.865
42.548,36.822
43.058,36.777
43.498,36.73
43.866,36.683
44.16,36.637
44.383,36.59
44.537,36.545
44.628,36.501
44.663,36.457
44.649,36.414
44.592,36.37
44.5,36.325
44.379,36.278
44.237,36.228
44.079,36.176
43.91,36.121
43.736,36.063
43.56,36.001
43.384,35.935
43.211,35.865
43.043,35.792
42.881,35.716
42.725,35.637
42.576,35.557
42.433,35.477
42.298,35.396
42.169,35.315
42.047,35.235
41.93,35.157
41.819,35.082
41.712,35.011
41.609,34.946
41.507,34.886
41.408,34.833
41.309,34.786
41.21,34.744
41.11,34.706
41.008,34.671
40.903,34.639
40.794,34.608
40.682,34.577
40.566,34.545
40.445,34.512
40.32,34.476
40.189,34.439
40.055,34.398
39.917,34.353
39.775,34.303
39.632,34.249
39.488,34.192
39.343,34.133
39.199,34.074
39.057,34.017
38.917,33.961
38.78,33.909
38.648,33.862
38.524,33.82
38.407,33.786
38.301,33.758
38.206,33.737
38.122,33.722
38.049,33.712
37.985,33.704
37.93,33.697
37.881,33.688
37.84,33.676
37.803,33.659
37.771,33.638
37.742,33.614
37.716,33.587
37.692,33.558
37.67,33.527
37.649,33.495
37.628,33.463
37.605,33.431
37.58,33.401
37.55,33.374
37.514,33.35
37.471,33.328
37.42,33.308
37.361,33.29
37.294,33.274
37.221,33.258
37.143,33.243
37.062,33.228
36.978,33.212
36.892,33.196
36.804,33.179
36.714,33.16
36.621,33.139
36.526,33.114
36.429,33.086
36.33,33.056
36.23,33.022
36.128,32.986
36.026,32.948
35.924,32.908
35.822,32.869
35.721,32.83
35.619,32.793
35.516,32.758
35.413,32.724
35.31,32.693
35.207,32.665
35.105,32.639
35.003,32.615
34.903,32.595
34.805,32.578
34.71,32.564
34.618,32.553
34.529,32.541
34.443,32.527
34.359,32.512
34.278,32.495
34.199,32.477
34.121,32.46
34.045,32.442
33.97,32.424
33.897,32.405
33.827,32.385
33.759,32.366
33.693,32.349
33.63,32.333
33.569,32.319
33.509,32.305
33.452,32.291
33.395,32.278
33.34,32.265
33.286,32.253
33.232,32.242
33.181,32.231
33.13,32.221
33.081,32.213
33.034,32.206
32.988,32.2
32.943,32.193
32.898,32.185
32.855,32.175
32.811,32.163
32.767,32.151
32.724,32.137
32.681,32.122
32.639,32.107
32.599,32.093
32.561,32.081
32.526,32.071
32.493,32.064
32.462,32.061
32.433,32.06
32.407,32.063
32.382,32.067
32.359,32.071
32.338,32.075
32.318,32.078
32.299,32.08
32.281,32.085
32.264,32.093
32.248,32.109
32.232,32.135
32.214,32.177
32.195,32.238
32.172,32.324
32.143,32.437
32.109,32.579
32.07,32.751
32.03,32.952
31.99,33.184
31.953,33.447
31.921,33.738
31.895,34.057
31.876,34.399
31.864,34.761
31.86,35.138
31.863,35.525
31.871,35.917
31.884,36.31
31.899,36.696
31.914,37.07
31.927,37.426
31.938,37.762
31.948,38.071
31.955,38.353
31.961,38.602
31.964,38.819
31.965,39.002
31.962,39.152
31.956,39.269
31.945,39.357
31.929,39.416
31.908,39.451
31.884,39.465
31.857,39.461
31.828,39.443
31.798,39.415
31.768,39.38
31.737,39.34
31.706,39.296
31.675,39.251
31.644,39.205
31.615,39.16
31.59,39.114
31.57,39.069
31.559,39.024
31.56,38.981
31.576,38.939
31.61,38.901
31.665,38.867
31.744,38.837
31.85,38.81
31.986,38.787
32.158,38.766
32.368,38.747
32.622,38.729
32.925,38.708
33.284,38.685
33.703,38.66
34.184,38.632
34.726,38.604
35.326,38.574
35.977,38.543
36.669,38.51
37.392,38.474
38.131,38.435
38.873,38.391
39.602,38.343
40.307,38.289
40.974,38.231
41.594,38.17
42.157,38.106
42.656,38.04
43.088,37.973
43.449,37.905
43.741,37.836
43.965,37.767
44.126,37.699
44.227,37.632
44.275,37.567
44.274,37.506
44.231,37.45
44.153,37.398
44.047,37.352
43.916,37.312
43.768,37.277
