Trial 1:0back,Trial 6:0back
37.287,35.119
37.251,35.143
37.216,35.162
37.181,35.177
37.145,35.188
37.11,35.195
37.075,35.197
37.039,35.195
37.004,35.189
36.967,35.178
36.929,35.161
36.887,35.139
36.84,35.112
36.788,35.079
36.73,35.041
36.667,34.998
36.597,34.951
36.521,34.901
36.439,34.849
36.353,34.794
36.263,34.738
36.173,34.68
36.083,34.623
35.994,34.565
35.909,34.508
35.828,34.452
35.754,34.396
35.688,34.341
35.63,34.287
35.58,34.236
35.538,34.186
35.502,34.14
35.472,34.096
35.446,34.056
35.423,34.017
35.405,33.981
35.39,33.947
35.379,33.915
35.372,33.884
35.367,33.853
35.367,33.823
35.37,33.793
35.377,33.763
35.388,33.734
35.402,33.704
35.42,33.674
35.44,33.644
35.463,33.614
35.488,33.583
35.514,33.551
35.539,33.518
35.561,33.486
35.58,33.453
35.592,33.42
35.597,33.388
35.593,33.357
35.58,33.329
35.56,33.303
35.531,33.28
35.493,33.259
35.446,33.242
35.39,33.229
35.327,33.218
35.259,33.21
35.186,33.204
35.11,33.2
35.031,33.198
34.951,33.196
34.871,33.195
34.79,33.194
34.712,33.195
34.636,33.198
34.565,33.202
34.498,33.207
34.436,33.213
34.378,33.221
34.323,33.231
34.272,33.242
34.226,33.257
34.186,33.278
34.15,33.309
34.118,33.354
34.089,33.419
34.063,33.507
34.037,33.624
34.012,33.774
33.987,33.96
33.962,34.187
33.938,34.455
33.914,34.764
33.891,35.11
33.87,35.489
33.852,35.894
33.836,36.315
33.823,36.744
33.813,37.17
33.805,37.583
33.799,37.974
33.795,38.334
33.793,38.659
33.79,38.942
33.786,39.181
33.78,39.375
33.773,39.523
33.764,39.626
33.752,39.687
33.737,39.709
33.72,39.696
33.699,39.651
33.675,39.579
33.647,39.486
33.616,39.377
33.584,39.257
33.553,39.129
33.524,38.997
33.5,38.865
33.483,38.733
33.478,38.604
33.488,38.48
33.517,38.36
33.569,38.244
33.648,38.132
33.755,38.022
33.894,37.914
34.064,37.805
34.266,37.697
34.498,37.587
34.756,37.478
35.037,37.367
35.335,37.258
35.645,37.149
35.959,37.043
36.27,36.939
36.573,36.838
36.861,36.738
37.129,36.639
37.373,36.542
37.59,36.446
37.777,36.352
37.934,36.259
38.061,36.168
38.158,36.077
38.227,35.985
38.27,35.893
38.288,35.798
38.286,35.702
38.267,35.606
38.234,35.509
38.19,35.413
38.138,35.319
38.081,35.228
38.021,35.143
37.962,35.065
37.905,34.995
37.848,34.933
37.785,34.881
37.715,34.839
37.636,34.806
37.553,34.781
37.468,34.767
37.386,34.761
37.311,34.763
37.247,34.774
37.194,34.792
37.152,34.818
37.12,34.85
37.097,34.887
37.083,34.929
37.074,34.974
37.069,35.02
37.064,35.066
37.056,35.111
37.045,35.153
37.028,35.192
37.004,35.228
36.973,35.26
36.932,35.286
36.882,35.308
36.824,35.324
36.758,35.335
36.685,35.339
36.605,35.336
36.519,35.324
36.427,35.304
36.333,35.277
36.236,35.244
36.14,35.206
36.045,35.164
35.953,35.119
35.867,35.071
35.787,35.021
35.715,34.968
35.65,34.911
35.593,34.85
35.544,34.785
35.504,34.714
35.473,34.64
35.451,34.563
35.436,34.484
35.427,34.405
35.423,34.328
35.425,34.254
35.43,34.184
35.439,34.119
35.452,34.057
35.467,34
35.484,33.948
35.502,33.899
35.52,33.854
35.539,33.812
35.559,33.774
35.578,33.739
35.595,33.706
35.608,33.675
35.616,33.644
35.618,33.614
35.614,33.583
35.604,33.55
35.587,33.516
35.562,33.481
35.53,33.446
35.49,33.414
35.443,33.384
35.387,33.357
35.325,33.335
35.258,33.316
35.187,33.302
35.115,33.29
35.042,33.281
34.97,33.275
34.9,33.271
34.832,33.268
34.767,33.266
34.705,33.265
34.646,33.264
34.591,33.264
34.539,33.265
34.49,33.267
34.442,33.27
34.395,33.274
34.348,33.278
34.3,33.281
34.254,33.284
34.209,33.287
34.165,33.293
34.121,33.306
34.077,33.328
34.033,33.365
33.991,33.423
33.949,33.506
33.91,33.621
33.873,33.77
33.839,33.959
33.807,34.188
33.777,34.459
33.751,34.77
33.728,35.119
33.709,35.499
33.693,35.905
33.679,36.327
33.667,36.756
33.657,37.181
33.649,37.591
33.641,37.977
33.634,38.33
33.627,38.645
33.618,38.916
33.606,39.142
33.592,39.32
33.574,39.452
33.553,39.54
33.528,39.586
33.501,39.595
33.472,39.572
33.441,39.52
33.41,39.446
33.379,39.353
33.351,39.246
33.325,39.129
33.303,39.004
33.289,38.875
33.285,38.744
33.293,38.614
33.316,38.486
33.357,38.361
33.418,38.24
33.505,38.122
33.62,38.007
33.765,37.893
33.942,37.781
34.151,37.669
34.389,37.558
34.654,37.449
34.942,37.339
35.248,37.232
35.565,37.126
35.887,37.022
36.207,36.919
36.518,36.819
36.812,36.719
37.085,36.62
37.333,36.521
37.554,36.422
37.746,36.323
37.907,36.224
38.038,36.124
38.138,36.024
38.21,35.922
38.256,35.82
38.281,35.715
38.285,35.61
38.274,35.506
38.248,35.403
38.212,35.304
38.167,35.21
38.117,35.123
38.064,35.045
38.009,34.977
37.952,34.918
37.895,34.871
37.839,34.833
37.783,34.805
37.729,34.787
37.676,34.778
37.624,34.776
37.573,34.781
37.521,34.791
37.471,34.805
37.421,34.823
37.374,34.844
37.328,34.868
37.286,34.893
37.248,34.92
37.212,34.948
37.179,34.975
37.149,35.001
37.12,35.024
37.091,35.044
37.061,35.06
37.027,35.071
36.989,35.077
36.946,35.081
36.898,35.082
36.845,35.08
36.784,35.074
36.716,35.064
36.641,35.049
36.558,35.028
36.468,35.001
36.374,34.967
36.277,34.926
36.177,34.881
36.077,34.831
35.979,34.78
35.883,34.729
35.793,34.678
35.711,34.627
35.641,34.577
35.581,34.526
35.532,34.476
35.493,34.426
35.462,34.377
35.441,34.33
35.427,34.285
35.42,34.242
35.421,34.2
35.428,34.16
35.441,34.12
35.457,34.081
35.476,34.041
35.497,34.002
35.519,33.964
35.54,33.925
35.559,33.888
35.576,33.852
35.589,33.817
35.598,33.783
35.603,33.749
35.604,33.717
35.601,33.685
35.593,33.655
35.579,33.627
35.56,33.602
35.535,33.577
35.505,33.553
35.47,33.529
35.431,33.504
35.388,33.481
35.341,33.459
35.291,33.44
35.236,33.425
35.179,33.413
35.119,33.404
35.058,33.397
34.997,33.393
34.934,33.389
34.869,33.385
34.802,33.38
34.734,33.374
34.664,33.368
34.594,33.36
34.523,33.354
34.452,33.348
34.38,33.344
34.309,33.343
34.239,33.344
34.171,33.348
34.105,33.357
34.044,33.371
33.987,33.392
33.936,33.421
33.891,33.461
33.851,33.514
33.816,33.586
33.786,33.681
33.761,33.804
33.74,33.96
33.723,34.154
33.709,34.39
33.698,34.668
33.687,34.987
33.677,35.344
33.667,35.731
33.657,36.142
33.648,36.566
33.638,36.993
33.628,37.414
33.616,37.818
33.603,38.198
33.589,38.546
33.574,38.859
33.558,39.132
33.542,39.362
33.526,39.549
33.511,39.693
33.496,39.795
33.484,39.855
33.473,39.878
33.464,39.865
33.456,39.82
33.449,39.748
33.441,39.654
33.432,39.543
33.42,39.417
33.407,39.282
33.392,39.139
33.376,38.992
33.358,38.843
33.34,38.693
33.32,38.545
33.301,38.404
33.284,38.276
33.27,38.161
33.261,38.059
33.262,37.966
33.276,37.877
33.307,37.786
33.361,37.692
33.441,37.593
33.552,37.488
33.697,37.377
33.88,37.259
34.099,37.136
34.353,37.008
34.638,36.877
34.949,36.745
35.279,36.613
35.622,36.484
35.969,36.358
36.315,36.235
36.65,36.115
36.97,35.998
37.266,35.884
37.535,35.774
37.774,35.668
37.979,35.566
38.15,35.47
38.286,35.381
38.389,35.299
38.46,35.224
38.502,35.156
38.519,35.095
38.514,35.041
38.491,34.994
38.452,34.953
38.401,34.92
38.342,34.894
38.276,34.876
38.208,34.865
38.139,34.861
38.071,34.864
38.005,34.873
37.942,34.888
37.882,34.907
37.827,34.931
37.777,34.961
37.731,34.994
37.69,35.028
37.653,35.063
37.621,35.097
37.593,35.128
37.567,35.156
37.544,35.179
37.52,35.196
37.494,35.207
37.467,35.213
37.438,35.212
37.405,35.205
37.369,35.191
37.329,35.17
37.284,35.143
37.234,35.109
37.177,35.068
37.115,35.023
37.046,34.974
36.972,34.922
36.891,34.868
36.804,34.813
36.712,34.757
36.614,34.7
36.514,34.642
36.412,34.584
36.31,34.527
36.209,34.47
36.109,34.416
36.013,34.365
35.922,34.316
35.839,34.269
35.763,34.225
35.696,34.181
35.637,34.136
35.586,34.092
35.543,34.048
35.511,34.004
35.487,33.962
35.472,33.922
35.466,33.885
35.467,33.851
35.475,33.818
35.488,33.787
35.505,33.757
35.524,33.726
35.545,33.697
35.567,33.669
35.589,33.644
35.61,33.621
35.63,33.6
35.647,33.58
35.662,33.56
35.674,33.54
35.684,33.519
35.691,33.499
35.695,33.48
35.695,33.461
35.69,33.443
35.681,33.426
35.664,33.41
35.64,33.393
35.607,33.377
35.567,33.36
35.52,33.345
35.469,33.332
35.413,33.321
35.353,33.312
35.29,33.306
35.225,33.3
35.158,33.295
35.089,33.289
35.018,33.283
34.945,33.277
34.872,33.273
34.798,33.272
34.726,33.275
34.654,33.283
34.585,33.297
34.518,33.318
34.455,33.347
34.396,33.382
34.342,33.428
34.294,33.486
34.252,33.561
34.214,33.658
34.179,33.782
34.146,33.939
34.114,34.135
34.083,34.373
34.053,34.653
34.024,34.975
33.994,35.332
33.963,35.721
33.932,36.132
33.9,36.557
33.867,36.986
33.833,37.41
33.8,37.82
33.77,38.206
33.742,38.56
33.717,38.875
33.695,39.145
33.675,39.367
33.656,39.541
33.639,39.666
33.623,39.746
33.608,39.784
33.595,39.786
33.584,39.756
33.574,39.7
33.564,39.623
33.555,39.528
33.547,39.42
33.541,39.302
33.535,39.176
33.53,39.045
33.525,38.911
33.52,38.775
33.514,38.638
33.509,38.501
33.503,38.365
33.496,38.231
33.489,38.1
33.481,37.973
33.47,37.85
33.455,37.73
33.438,37.612
33.417,37.497
33.395,37.383
33.37,37.272
33.343,37.162
33.315,37.054
33.286,36.95
33.256,36.848
33.227,36.749
33.201,36.654
33.181,36.563
33.172,36.473
33.177,36.385
33.2,36.298
33.246,36.212
33.32,36.129
33.425,36.048
33.567,35.969
33.747,35.892
33.967,35.818
34.223,35.747
34.511,35.677
34.827,35.609
35.165,35.544
35.517,35.483
35.876,35.426
36.235,35.377
36.584,35.336
36.918,35.304
37.231,35.282
37.518,35.27
37.775,35.267
37.999,35.272
38.189,35.284
38.344,35.302
38.463,35.325
38.55,35.352
38.605,35.381
38.633,35.412
38.636,35.445
38.619,35.478
38.584,35.51
38.535,35.543
38.474,35.574
38.404,35.605
38.328,35.634
38.248,35.66
38.166,35.684
38.084,35.705
38.003,35.721
37.924,35.733
37.85,35.739
37.782,35.738
37.721,35.731
37.666,35.716
37.617,35.694
37.575,35.665
37.539,35.63
37.51,35.59
37.487,35.545
37.467,35.497
37.449,35.447
37.432,35.395
37.415,35.341
37.395,35.286
37.371,35.228
37.341,35.168
37.306,35.105
37.262,35.041
37.211,34.975
37.151,34.908
37.084,34.841
37.009,34.774
36.928,34.708
36.841,34.644
36.748,34.582
36.649,34.522
36.545,34.464
36.438,34.408
36.331,34.355
36.224,34.304
36.12,34.256
36.019,34.21
35.921,34.168
35.829,34.129
35.744,34.091
35.668,34.054
35.6,34.017
35.542,33.98
35.494,33.944
35.455,33.909
35.426,33.874
35.406,33.841
35.395,33.809
35.391,33.778
35.392,33.748
35.399,33.719
35.41,33.692
35.422,33.665
35.435,33.641
35.449,33.62
35.462,33.602
35.473,33.588
35.482,33.579
35.488,33.573
35.489,33.571
35.486,33.572
35.481,33.576
35.472,33.583
35.459,33.59
35.442,33.599
35.422,33.607
35.399,33.616
35.373,33.623
35.345,33.628
35.315,33.631
35.281,33.633
35.243,33.634
35.2,33.635
35.153,33.637
35.101,33.642
35.045,33.653
34.986,33.673
34.925,33.703
34.86,33.75
34.792,33.819
34.722,33.917
34.651,34.049
34.579,34.221
34.507,34.435
34.435,34.694
34.365,34.995
34.297,35.334
34.234,35.705
34.175,36.099
34.121,36.507
34.071,36.919
34.026,37.327
33.984,37.723
33.947,38.096
33.912,38.441
33.88,38.752
33.852,39.022
33.826,39.25
33.801,39.435
33.777,39.577
33.751,39.679
33.723,39.743
33.694,39.772
33.664,39.769
33.632,39.738
33.599,39.682
33.565,39.607
33.531,39.515
33.497,39.412
33.463,39.302
33.43,39.188
33.4,39.072
33.372,38.955
33.348,38.839
33.328,38.723
33.31,38.609
33.295,38.496
33.279,38.384
33.259,38.272
33.234,38.16
33.207,38.048
33.18,37.936
33.157,37.824
33.14,37.711
33.128,37.598
33.123,37.486
33.124,37.376
33.129,37.27
33.135,37.167
33.141,37.069
33.143,36.975
33.142,36.885
33.136,36.797
33.126,36.711
33.111,36.625
33.091,36.54
33.066,36.453
33.038,36.366
33.008,36.278
32.979,36.19
32.951,36.102
32.926,36.014
32.907,35.927
32.898,35.841
32.901,35.758
32.919,35.678
32.955,35.604
33.015,35.536
33.102,35.478
33.22,35.429
33.372,35.391
33.561,35.365
33.788,35.349
34.051,35.345
34.348,35.35
34.672,35.364
35.018,35.385
35.378,35.414
35.746,35.447
36.113,35.485
36.472,35.525
36.813,35.568
37.133,35.612
37.426,35.656
37.69,35.698
37.923,35.737
38.122,35.773
38.286,35.804
38.416,35.828
38.513,35.846
38.581,35.857
38.623,35.861
38.641,35.856
38.638,35.843
38.616,35.823
38.579,35.794
38.53,35.76
38.472,35.719
38.406,35.674
38.334,35.625
38.259,35.574
38.184,35.521
38.108,35.466
38.033,35.41
37.96,35.354
37.888,35.296
37.817,35.237
37.748,35.175
37.681,35.112
37.615,35.048
37.552,34.982
37.493,34.916
37.436,34.851
37.383,34.786
37.335,34.723
37.29,34.66
37.25,34.599
37.214,34.539
37.182,34.479
37.153,34.422
37.125,34.365
37.096,34.311
37.065,34.259
37.031,34.209
36.99,34.161
36.943,34.116
36.888,34.075
36.823,34.036
36.749,34
36.666,33.965
36.574,33.931
36.473,33.899
36.366,33.869
36.254,33.842
36.14,33.816
36.026,33.793
35.915,33.773
35.808,33.756
35.707,33.742
35.616,33.731
35.535,33.721
35.465,33.714
35.406,33.709
35.358,33.706
35.32,33.705
35.295,33.707
35.28,33.71
35.277,33.716
35.283,33.722
35.298,33.729
35.322,33.735
35.352,33.738
35.388,33.739
35.426,33.737
35.466,33.731
35.504,33.723
35.539,33.711
35.571,33.698
35.596,33.684
35.614,33.67
35.624,33.656
35.627,33.643
35.622,33.631
35.61,33.62
35.59,33.613
35.563,33.61
35.529,33.615
35.489,33.631
35.442,33.663
35.39,33.716
35.333,33.796
35.272,33.909
35.208,34.058
35.142,34.248
35.075,34.48
35.008,34.756
34.939,35.071
34.869,35.42
34.798,35.797
34.726,36.192
34.653,36.597
34.579,37.003
34.505,37.401
34.431,37.783
34.356,38.142
34.279,38.471
34.202,38.765
34.123,39.02
34.045,39.234
33.969,39.407
33.896,39.538
33.828,39.63
33.766,39.684
33.71,39.705
33.661,39.694
33.617,39.657
33.579,39.597
33.548,39.518
33.523,39.425
33.503,39.322
33.487,39.21
33.473,39.093
33.461,38.973
33.451,38.851
33.442,38.727
33.433,38.605
33.426,38.484
33.419,38.365
33.412,38.249
33.403,38.135
33.392,38.025
33.379,37.918
33.364,37.813
33.348,37.71
33.329,37.609
33.308,37.51
33.284,37.413
33.259,37.315
33.233,37.212
33.208,37.104
33.183,36.992
33.161,36.879
33.139,36.768
33.12,36.661
33.103,36.558
33.089,36.457
33.078,36.358
33.072,36.263
33.071,36.17
33.075,36.08
33.087,35.991
33.107,35.903
33.137,35.816
33.181,35.729
33.24,35.643
33.322,35.56
33.429,35.48
33.567,35.406
33.739,35.34
33.944,35.283
34.183,35.237
34.454,35.202
34.753,35.179
35.075,35.167
35.416,35.166
35.77,35.175
36.135,35.194
36.504,35.221
36.87,35.256
37.223,35.297
37.554,35.343
37.854,35.391
38.116,35.44
38.336,35.487
38.512,35.531
38.644,35.571
38.733,35.607
38.782,35.638
38.793,35.665
38.771,35.686
38.72,35.703
38.646,35.715
38.555,35.721
38.452,35.723
38.341,35.718
38.226,35.708
38.111,35.692
37.997,35.671
37.889,35.646
37.787,35.619
37.691,35.588
37.604,35.554
37.523,35.516
37.451,35.475
37.386,35.429
37.329,35.378
37.279,35.322
37.235,35.261
37.195,35.196
37.158,35.129
37.125,35.06
37.093,34.989
37.061,34.917
37.03,34.845
36.996,34.772
36.959,34.698
36.917,34.625
36.87,34.551
36.816,34.479
36.757,34.409
36.69,34.342
36.617,34.278
36.535,34.218
36.446,34.161
36.35,34.108
36.249,34.057
36.144,34.01
36.037,33.966
35.929,33.925
35.821,33.887
35.717,33.852
35.616,33.82
35.521,33.789
35.434,33.761
35.356,33.734
35.288,33.707
35.23,33.682
35.182,33.656
35.144,33.63
35.117,33.605
35.099,33.582
35.091,33.562
35.091,33.545
35.097,33.531
35.109,33.52
35.123,33.512
35.141,33.507
35.16,33.504
35.18,33.503
35.201,33.503
35.221,33.503
35.242,33.502
35.261,33.5
35.279,33.496
35.296,33.492
35.309,33.485
35.318,33.478
35.322,33.47
35.32,33.463
35.312,33.457
35.298,33.453
35.278,33.449
35.254,33.447
35.225,33.445
35.192,33.443
35.155,33.44
35.115,33.438
35.07,33.436
35.022,33.438
34.97,33.445
34.915,33.46
34.856,33.486
34.793,33.527
34.727,33.588
34.657,33.672
34.584,33.785
34.507,33.932
34.429,34.119
34.35,34.347
34.271,34.617
34.193,34.929
34.116,35.279
34.042,35.659
33.971,36.063
33.904,36.48
33.841,36.899
33.783,37.312
33.728,37.708
33.677,38.081
33.63,38.422
33.586,38.728
33.547,38.993
33.512,39.217
33.481,39.398
33.455,39.537
33.433,39.636
33.414,39.697
33.398,39.722
33.385,39.715
33.372,39.679
33.361,39.617
33.35,39.534
33.338,39.434
33.325,39.322
33.31,39.202
33.294,39.079
33.277,38.954
33.259,38.83
33.241,38.708
33.224,38.587
33.208,38.467
33.192,38.348
33.176,38.228
33.161,38.106
33.146,37.984
33.13,37.861
33.116,37.737
33.101,37.614
33.087,37.493
33.071,37.373
33.056,37.256
33.039,37.141
33.022,37.029
33.004,36.919
32.985,36.812
32.964,36.708
32.942,36.606
32.917,36.506
32.891,36.409
32.865,36.314
32.839,36.22
32.819,36.127
32.806,36.034
32.806,35.942
32.823,35.85
32.864,35.758
32.935,35.668
33.04,35.579
33.186,35.493
33.376,35.41
33.61,35.332
33.889,35.26
34.208,35.194
34.563,35.136
34.946,35.086
35.349,35.044
35.762,35.012
36.175,34.988
36.578,34.974
36.963,34.971
37.321,34.976
37.647,34.991
37.936,35.013
38.184,35.043
38.389,35.078
38.55,35.117
38.669,35.16
38.749,35.207
38.793,35.255
38.807,35.306
38.794,35.356
38.759,35.404
38.707,35.45
38.642,35.491
38.568,35.526
38.49,35.552
38.41,35.57
38.331,35.578
38.254,35.578
38.181,35.569
38.113,35.553
38.048,35.531
37.987,35.503
37.93,35.47
37.875,35.431
37.822,35.387
37.771,35.338
37.722,35.283
37.678,35.223
37.64,35.158
37.608,35.091
37.579,35.022
37.549,34.953
37.514,34.884
37.474,34.816
37.427,34.748
37.372,34.681
37.309,34.613
37.24,34.547
37.165,34.481
37.085,34.417
37.002,34.355
36.915,34.294
36.824,34.234
36.73,34.175
36.633,34.117
36.534,34.058
36.433,33.999
36.332,33.939
36.23,33.88
36.128,33.821
36.027,33.764
35.928,33.71
35.832,33.659
35.742,33.611
35.657,33.566
35.58,33.523
35.51,33.482
35.448,33.442
35.393,33.403
35.346,33.368
35.306,33.336
35.275,33.308
35.252,33.283
35.236,33.262
35.227,33.242
35.224,33.225
35.227,33.208
35.236,33.193
35.251,33.178
35.269,33.165
35.291,33.155
35.314,33.148
35.338,33.145
35.362,33.145
35.386,33.148
35.409,33.151
35.43,33.156
35.447,33.159
35.458,33.162
35.463,33.165
35.46,33.168
35.449,33.172
35.43,33.175
35.403,33.178
35.367,33.18
35.323,33.181
35.271,33.182
35.213,33.181
35.151,33.181
35.085,33.181
35.016,33.184
34.945,33.19
34.871,33.2
34.797,33.216
34.721,33.243
34.645,33.283
34.569,33.343
34.496,33.427
34.424,33.543
34.354,33.696
34.286,33.892
34.219,34.132
34.154,34.417
34.09,34.746
34.029,35.113
33.971,35.511
33.914,35.931
33.859,36.363
33.805,36.796
33.752,37.222
33.699,37.633
33.646,38.023
33.594,38.381
33.544,38.7
33.496,38.977
33.452,39.208
33.412,39.39
33.376,39.524
33.344,39.61
33.317,39.652
33.296,39.656
33.278,39.626
33.265,39.569
33.255,39.49
33.248,39.393
33.243,39.283
33.241,39.164
33.239,39.039
33.239,38.908
33.239,38.775
33.236,38.641
33.229,38.505
33.219,38.367
33.205,38.225
33.187,38.08
33.165,37.934
33.141,37.785
33.113,37.636
33.081,37.489
33.048,37.346
33.013,37.207
32.978,37.072
32.944,36.939
32.912,36.809
32.881,36.681
32.852,36.556
32.825,36.433
32.801,36.313
32.781,36.198
32.765,36.087
32.755,35.981
32.754,35.88
32.762,35.782
32.784,35.686
32.824,35.591
32.884,35.497
32.971,35.403
33.087,35.31
33.239,35.22
33.429,35.135
33.657,35.055
33.923,34.984
34.223,34.92
34.554,34.864
34.909,34.814
35.282,34.77
35.665,34.733
36.051,34.702
36.431,34.678
36.798,34.664
37.145,34.659
37.467,34.665
37.758,34.682
38.014,34.709
38.233,34.744
38.413,34.786
38.555,34.833
38.663,34.882
38.738,34.932
38.781,34.982
38.795,35.032
38.783,35.08
38.751,35.128
38.702,35.175
38.639,35.219
38.565,35.259
38.482,35.295
38.393,35.324
38.302,35.346
38.209,35.361
38.118,35.369
38.029,35.369
37.942,35.364
37.857,35.352
37.775,35.334
37.699,35.308
37.627,35.275
37.562,35.234
37.502,35.185
37.447,35.129
37.396,35.067
37.349,34.998
37.306,34.925
37.265,34.849
37.225,34.77
37.186,34.69
37.147,34.61
37.107,34.528
37.065,34.446
37.02,34.363
36.973,34.28
36.922,34.198
36.865,34.116
36.802,34.036
36.732,33.959
36.655,33.885
36.571,33.815
36.48,33.749
36.381,33.689
36.275,33.633
36.162,33.582
36.045,33.535
35.926,33.492
35.809,33.451
35.696,33.412
35.591,33.374
35.495,33.338
35.41,33.305
35.336,33.274
35.274,33.245
35.225,33.221
35.188,33.2
35.165,33.183
35.154,33.167
35.152,33.154
35.159,33.141
35.173,33.13
35.192,33.119
35.217,33.11
35.244,33.102
35.272,33.097
35.298,33.095
35.323,33.097
35.345,33.102
35.364,33.107
35.381,33.113
35.393,33.118
35.4,33.123
35.401,33.127
35.398,33.13
35.388,33.133
35.374,33.137
35.353,33.14
35.329,33.142
35.305,33.145
35.286,33.148
35.27,33.151
35.256,33.156
35.24,33.161
35.221,33.17
35.195,33.185
35.158,33.208
35.109,33.244
35.046,33.296
34.969,33.371
34.88,33.474
34.781,33.611
34.674,33.789
34.561,34.013
34.444,34.284
34.326,34.602
34.21,34.963
34.097,35.361
33.989,35.787
33.888,36.23
33.796,36.678
33.712,37.121
33.637,37.547
33.571,37.947
33.512,38.313
33.462,38.639
33.42,38.923
33.385,39.162
33.356,39.356
33.332,39.506
33.313,39.614
33.297,39.683
33.284,39.714
33.271,39.713
33.259,39.683
33.248,39.629
33.236,39.554
33.223,39.462
33.208,39.359
33.192,39.248
33.174,39.13
33.156,39.009
33.137,38.885
33.116,38.76
33.095,38.633
33.072,38.505
33.047,38.374
33.021,38.241
32.993,38.105
32.963,37.966
32.934,37.826
32.905,37.686
32.876,37.549
32.847,37.415
32.821,37.284
32.797,37.158
32.777,37.035
32.761,36.915
32.748,36.798
32.741,36.682
32.741,36.567
32.749,36.454
32.768,36.342
32.8,36.231
32.851,36.122
32.926,36.014
33.031,35.909
33.17,35.807
33.346,35.709
33.559,35.614
33.812,35.523
34.101,35.435
34.426,35.352
34.778,35.273
35.153,35.201
35.542,35.135
35.935,35.076
36.326,35.025
36.705,34.98
37.066,34.942
37.402,34.91
37.707,34.884
37.977,34.863
38.21,34.849
38.405,34.842
38.562,34.843
38.68,34.852
38.762,34.869
38.811,34.893
38.83,34.923
38.822,34.959
38.793,34.997
38.746,35.037
38.684,35.076
38.61,35.113
38.527,35.147
38.437,35.179
38.344,35.208
38.249,35.234
38.154,35.255
38.061,35.273
37.971,35.286
37.885,35.293
37.804,35.296
37.728,35.294
37.659,35.287
37.597,35.276
37.54,35.261
37.488,35.24
37.441,35.214
37.398,35.183
37.359,35.144
37.323,35.097
37.289,35.042
37.255,34.98
37.221,34.912
37.185,34.84
37.146,34.766
37.106,34.69
37.061,34.616
37.012,34.542
36.955,34.47
36.89,34.399
36.817,34.329
36.735,34.261
36.646,34.192
36.548,34.124
36.442,34.056
36.332,33.99
36.217,33.925
36.102,33.861
35.987,33.8
35.875,33.74
35.768,33.683
35.667,33.628
35.574,33.575
35.49,33.524
35.416,33.475
35.354,33.427
35.303,33.383
35.265,33.348
35.239,33.327
35.224,33.316
35.219,33.313
35.225,33.313
35.238,33.312
35.259,33.306
35.284,33.295
35.311,33.278
35.338,33.257
35.364,33.232
35.388,33.207
35.408,33.182
35.423,33.157
35.434,33.136
35.439,33.117
35.438,33.101
35.43,33.088
35.417,33.077
35.398,33.07
35.375,33.065
35.349,33.063
35.32,33.062
35.288,33.063
35.253,33.064
35.215,33.065
35.175,33.067
35.134,33.068
35.089,33.07
35.04,33.073
34.986,33.08
34.926,33.094
34.86,33.117
34.79,33.154
34.714,33.208
34.633,33.284
34.548,33.388
34.459,33.525
34.368,33.7
34.276,33.918
34.184,34.181
34.092,34.49
34.003,34.842
33.918,35.233
33.837,35.656
33.762,36.102
33.692,36.561
33.628,37.023
33.571,37.475
33.519,37.909
33.474,38.315
33.436,38.684
33.405,39.011
33.379,39.291
33.36,39.522
33.348,39.704
33.342,39.835
33.34,39.919
33.342,39.958
33.344,39.957
33.344,39.921
33.341,39.855
33.332,39.764
33.318,39.654
33.299,39.529
33.276,39.396
33.246,39.259
33.213,39.12
33.175,38.984
33.134,38.85
33.091,38.721
33.048,38.595
33.006,38.471
32.967,38.35
32.932,38.228
32.902,38.104
32.876,37.979
32.856,37.85
32.841,37.719
32.834,37.588
32.837,37.456
32.851,37.327
32.879,37.199
32.925,37.076
32.991,36.956
33.082,36.84
33.201,36.727
33.353,36.617
33.539,36.51
33.763,36.407
34.023,36.308
34.317,36.213
34.64,36.121
34.986,36.033
35.349,35.946
35.72,35.859
36.093,35.77
36.458,35.681
36.808,35.592
37.138,35.503
37.441,35.416
37.714,35.333
37.953,35.254
38.157,35.181
38.325,35.113
38.456,35.052
38.554,34.999
38.619,34.955
38.653,34.92
38.661,34.894
38.646,34.878
38.612,34.871
38.561,34.874
38.499,34.885
38.427,34.904
38.348,34.93
38.265,34.96
38.18,34.993
38.094,35.028
38.009,35.065
37.927,35.103
37.848,35.142
37.773,35.18
37.701,35.217
37.634,35.252
37.571,35.283
37.512,35.31
37.457,35.332
37.405,35.347
37.356,35.357
37.308,35.36
37.26,35.357
37.213,35.349
37.167,35.335
37.12,35.315
37.072,35.29
37.023,35.258
36.971,35.222
36.915,35.18
36.856,35.132
36.793,35.078
36.725,35.019
36.653,34.955
36.574,34.887
36.49,34.816
36.399,34.745
36.303,34.672
36.203,34.599
36.099,34.525
35.994,34.451
35.888,34.378
35.784,34.305
35.682,34.233
35.586,34.162
35.495,34.092
35.413,34.024
35.341,33.957
35.281,33.893
35.231,33.829
35.193,33.766
35.167,33.705
35.154,33.645
35.152,33.585
35.16,33.528
35.178,33.473
35.203,33.421
35.233,33.374
35.267,33.331
35.302,33.292
35.339,33.257
35.374,33.226
35.407,33.198
35.437,33.176
35.462,33.157
35.481,33.144
35.494,33.136
35.5,33.132
35.497,33.132
35.486,33.137
35.465,33.143
35.437,33.151
35.4,33.157
35.356,33.162
35.306,33.164
35.25,33.163
35.19,33.159
35.128,33.153
35.064,33.146
34.998,33.139
34.933,33.133
34.867,33.126
34.803,33.12
34.74,33.115
34.678,33.11
34.616,33.106
34.555,33.103
34.494,33.105
34.434,33.112
34.374,33.127
34.316,33.155
34.259,33.198
34.203,33.261
34.148,33.349
34.093,33.469
34.036,33.624
33.98,33.82
33.924,34.06
33.869,34.346
33.816,34.676
33.765,35.047
33.716,35.453
33.668,35.883
33.622,36.328
33.578,36.776
33.538,37.217
33.5,37.639
33.464,38.032
33.43,38.391
33.4,38.71
33.371,38.984
33.345,39.212
33.319,39.393
33.294,39.528
33.268,39.617
33.242,39.666
33.216,39.676
33.19,39.655
33.163,39.606
33.139,39.535
33.12,39.445
33.108,39.341
33.107,39.225
33.121,39.102
33.155,38.974
33.213,38.843
33.298,38.712
33.416,38.58
33.568,38.447
33.756,38.315
33.98,38.183
34.238,38.051
34.526,37.919
34.839,37.79
35.17,37.663
35.512,37.539
35.859,37.418
36.205,37.303
36.544,37.191
36.867,37.082
37.168,36.976
37.443,36.872
37.688,36.77
37.899,36.669
38.074,36.57
38.211,36.473
38.31,36.376
38.374,36.279
38.405,36.181
38.406,36.081
38.383,35.979
38.339,35.876
38.278,35.772
38.205,35.668
38.123,35.564
38.037,35.463
37.949,35.365
37.86,35.272
37.771,35.183
37.685,35.102
37.603,35.027
37.526,34.96
37.453,34.9
37.386,34.849
37.323,34.808
37.267,34.775
37.216,34.751
37.172,34.736
37.131,34.73
37.091,34.734
37.051,34.747
37.009,34.768
36.963,34.797
36.914,34.832
36.86,34.874
36.801,34.921
36.735,34.972
36.663,35.025
36.585,35.078
36.502,35.127
36.413,35.171
36.322,35.21
36.229,35.243
36.134,35.269
36.038,35.287
35.94,35.298
35.844,35.304
35.749,35.305
35.658,35.301
35.571,35.291
35.489,35.276
35.412,35.254
35.341,35.228
35.276,35.196
35.218,35.158
35.167,35.114
35.123,35.063
35.087,35.006
35.058,34.945
35.037,34.881
35.022,34.815
35.014,34.748
35.013,34.681
35.017,34.613
35.027,34.544
35.042,34.474
35.059,34.404
35.079,34.334
35.101,34.265
35.125,34.197
35.15,34.132
35.175,34.07
35.199,34.011
35.219,33.957
35.236,33.905
35.249,33.858
35.258,33.813
35.262,33.77
35.26,33.729
35.251,33.69
35.235,33.652
35.21,33.614
35.176,33.577
35.134,33.541
35.085,33.508
35.028,33.478
34.966,33.451
34.899,33.429
34.827,33.412
34.752,33.399
34.676,33.39
34.6,33.383
34.526,33.377
34.455,33.372
34.388,33.366
34.325,33.36
34.265,33.355
34.209,33.349
34.155,33.344
34.105,33.339
34.059,33.332
34.015,33.325
33.973,33.317
33.932,33.307
33.891,33.295
33.851,33.282
33.811,33.268
33.771,33.253
33.729,33.237
33.686,33.221
33.641,33.207
33.594,33.193
33.546,33.179
33.498,33.165
33.449,33.149
33.4,33.132
33.353,33.114
33.307,33.096
33.262,33.079
33.22,33.065
33.179,33.057
33.14,33.059
33.105,33.074
33.072,33.107
33.042,33.164
33.014,33.25
32.989,33.37
32.967,33.529
32.949,33.732
32.935,33.981
32.927,34.276
32.926,34.615
32.937,34.994
32.96,35.407
33.001,35.844
33.065,36.296
33.156,36.751
33.278,37.2
33.435,37.632
33.628,38.036
33.857,38.405
34.12,38.732
34.413,39.011
34.732,39.241
35.068,39.419
35.417,39.547
35.77,39.629
36.12,39.667
36.46,39.668
36.785,39.637
37.088,39.58
37.365,39.502
37.61,39.407
37.821,39.3
37.998,39.183
38.139,39.059
38.245,38.93
38.318,38.798
38.36,38.664
38.373,38.529
38.362,38.394
38.33,38.26
38.282,38.126
38.221,37.994
38.151,37.864
38.074,37.735
37.994,37.608
37.912,37.482
37.829,37.357
37.746,37.235
37.666,37.116
37.589,37.001
37.515,36.888
37.443,36.778
37.374,36.672
37.308,36.568
37.246,36.466
37.189,36.364
37.136,36.262
37.086,36.159
37.038,36.055
36.993,35.949
36.95,35.843
36.907,35.738
36.865,35.634
36.819,35.534
36.769,35.438
36.714,35.345
36.653,35.256
36.585,35.17
36.51,35.088
36.428,35.011
36.34,34.942
36.245,34.881
36.145,34.829
36.038,34.789
35.927,34.761
35.814,34.745
35.7,34.742
35.589,34.751
35.48,34.771
35.378,34.801
35.283,34.84
35.203,34.886
35.143,34.937
35.103,34.992
35.084,35.049
35.08,35.105
35.088,35.16
35.106,35.212
35.129,35.26
35.154,35.302
35.179,35.337
35.201,35.364
35.218,35.385
35.232,35.4
35.243,35.409
35.251,35.414
35.257,35.413
35.262,35.406
35.265,35.392
35.265,35.371
35.261,35.344
35.252,35.31
35.239,35.271
35.222,35.227
35.202,35.18
35.179,35.131
35.154,35.079
35.127,35.024
35.1,34.965
35.073,34.902
35.045,34.836
35.017,34.766
34.987,34.694
34.955,34.622
34.919,34.55
34.88,34.48
34.837,34.411
34.79,34.345
34.739,34.28
34.686,34.217
34.628,34.155
34.566,34.093
34.5,34.033
34.43,33.976
34.358,33.922
34.285,33.873
34.212,33.829
34.14,33.788
34.07,33.752
34.003,33.719
33.94,33.689
33.882,33.662
33.828,33.637
33.778,33.614
33.732,33.593
33.69,33.573
33.651,33.555
33.614,33.539
33.58,33.525
33.548,33.512
33.52,33.501
33.495,33.491
33.472,33.483
33.451,33.476
33.431,33.469
33.411,33.463
33.391,33.456
33.372,33.449
33.353,33.441
33.333,33.432
33.313,33.423
33.292,33.415
33.269,33.407
33.245,33.4
33.219,33.394
33.19,33.388
33.162,33.38
33.132,33.371
33.102,33.36
33.071,33.346
33.04,33.331
33.013,33.314
32.993,33.298
32.984,33.281
32.991,33.265
33.019,33.249
33.073,33.233
33.159,33.215
33.279,33.195
33.438,33.173
33.636,33.151
33.874,33.13
34.148,33.11
34.455,33.096
34.787,33.089
35.138,33.091
35.5,33.108
35.865,33.141
36.226,33.198
36.575,33.282
36.903,33.401
37.205,33.558
37.477,33.759
37.716,34.007
37.92,34.302
38.088,34.642
38.22,35.022
38.317,35.435
38.382,35.874
38.418,36.327
38.43,36.784
38.42,37.235
38.391,37.669
38.348,38.075
38.292,38.445
38.229,38.773
38.161,39.054
38.09,39.286
38.017,39.47
37.942,39.606
37.867,39.698
37.791,39.749
37.715,39.762
37.639,39.742
37.564,39.693
37.489,39.619
37.414,39.525
37.34,39.415
37.267,39.295
37.194,39.167
37.12,39.032
37.047,38.893
36.973,38.75
36.898,38.603
36.822,38.452
36.744,38.299
36.667,38.143
36.589,37.985
36.513,37.825
36.437,37.666
36.362,37.507
36.286,37.351
36.212,37.199
36.137,37.052
36.062,36.912
35.985,36.779
35.907,36.654
35.827,36.535
35.747,36.421
35.666,36.308
35.586,36.196
35.507,36.082
35.429,35.968
35.354,35.853
35.283,35.739
35.217,35.627
35.158,35.517
35.107,35.412
35.064,35.31
35.03,35.213
35.004,35.12
34.986,35.033
34.975,34.952
34.971,34.878
34.976,34.813
34.989,34.757
35.009,34.713
35.036,34.679
35.067,34.657
35.101,34.646
35.138,34.646
35.175,34.656
35.21,34.676
35.243,34.703
35.27,34.738
35.291,34.782
35.305,34.833
35.311,34.889
35.309,34.948
35.299,35.008
35.282,35.064
35.257,35.117
35.223,35.163
35.181,35.203
35.132,35.237
35.077,35.265
35.018,35.289
34.957,35.31
34.894,35.327
34.83,35.34
34.763,35.349
34.696,35.354
34.628,35.355
34.56,35.351
34.493,35.343
34.425,35.329
34.359,35.309
34.293,35.283
34.228,35.25
34.164,35.211
34.101,35.164
34.04,35.11
33.979,35.048
33.92,34.978
33.863,34.901
33.808,34.818
33.755,34.733
33.704,34.648
33.657,34.564
33.612,34.484
33.571,34.408
33.533,34.335
33.498,34.264
33.466,34.195
33.435,34.128
33.406,34.063
33.379,33.999
33.353,33.938
33.328,33.88
33.304,33.825
33.28,33.775
33.257,33.728
33.234,33.684
33.21,33.643
33.188,33.605
33.165,33.569
33.143,33.535
33.121,33.504
33.098,33.477
33.075,33.453
33.053,33.431
33.032,33.412
33.014,33.395
33.001,33.378
32.995,33.361
33.001,33.343
33.024,33.327
33.069,33.314
33.144,33.303
33.252,33.296
33.398,33.292
33.583,33.29
33.808,33.29
34.073,33.289
34.372,33.288
34.702,33.285
35.055,33.284
35.424,33.282
35.799,33.281
36.173,33.282
36.537,33.283
36.885,33.286
37.211,33.29
37.509,33.294
37.774,33.296
38.003,33.297
38.193,33.295
38.346,33.292
38.462,33.286
38.543,33.278
38.592,33.268
38.611,33.256
38.604,33.242
38.574,33.226
38.525,33.211
38.46,33.196
38.383,33.183
38.296,33.171
38.202,33.162
38.104,33.154
38.004,33.148
37.905,33.142
37.81,33.138
37.721,33.135
37.64,33.135
37.565,33.138
37.498,33.146
37.439,33.162
37.386,33.191
37.341,33.238
37.301,33.308
37.266,33.407
37.235,33.543
37.206,33.721
37.176,33.945
37.144,34.218
37.109,34.538
37.068,34.904
37.02,35.307
36.965,35.741
36.901,36.196
36.827,36.662
36.745,37.128
36.656,37.584
36.56,38.018
36.458,38.422
36.352,38.786
36.243,39.103
36.133,39.369
36.025,39.582
35.918,39.74
35.817,39.846
35.72,39.905
35.631,39.92
35.549,39.898
35.477,39.843
35.417,39.762
35.367,39.66
35.327,39.543
35.297,39.415
35.275,39.277
35.26,39.134
35.251,38.986
35.247,38.834
35.248,38.679
35.252,38.525
35.26,38.371
35.269,38.22
35.281,38.072
35.293,37.928
35.308,37.788
35.324,37.65
35.34,37.513
35.354,37.377
35.366,37.24
35.376,37.104
35.382,36.968
35.384,36.835
35.383,36.705
35.376,36.578
35.365,36.457
35.347,36.34
35.326,36.226
35.3,36.116
35.27,36.007
35.237,35.9
35.2,35.794
35.158,35.691
35.112,35.591
35.06,35.496
35.002,35.407
34.939,35.324
34.871,35.249
34.8,35.182
34.725,35.124
34.646,35.074
34.566,35.033
34.485,34.999
34.403,34.975
34.321,34.958
34.241,34.95
34.164,34.95
34.09,34.957
34.021,34.971
33.957,34.991
33.898,35.018
33.845,35.05
33.797,35.087
33.754,35.128
33.715,35.172
33.679,35.218
33.647,35.265
33.618,35.312
33.59,35.36
33.563,35.407
33.53,35.451
33.491,35.493
33.444,35.529
33.393,35.56
33.339,35.583
33.286,35.596
33.232,35.601
33.18,35.597
33.131,35.585
33.088,35.566
33.051,35.542
33.021,35.513
32.996,35.478
32.979,35.437
32.968,35.391
32.962,35.34
32.96,35.283
32.963,35.222
32.97,35.158
32.98,35.092
32.994,35.025
33.014,34.958
33.041,34.89
33.08,34.824
33.134,34.757
33.207,34.69
33.303,34.623
33.427,34.555
33.584,34.487
33.775,34.42
34.003,34.354
34.266,34.292
34.562,34.232
34.885,34.175
35.23,34.12
35.592,34.066
35.961,34.013
36.33,33.961
36.689,33.909
37.034,33.86
37.356,33.812
37.651,33.768
37.914,33.729
38.143,33.693
38.334,33.661
38.488,33.632
38.608,33.605
38.694,33.578
38.749,33.552
38.776,33.526
38.779,33.5
38.762,33.474
38.728,33.449
38.682,33.425
38.627,33.403
38.566,33.382
38.501,33.363
38.433,33.345
38.364,33.329
38.294,33.315
38.225,33.303
38.157,33.295
38.091,33.289
38.027,33.287
37.965,33.288
37.905,33.291
37.848,33.296
37.794,33.302
37.744,33.31
37.698,33.319
37.656,33.331
37.617,33.345
37.58,33.361
37.544,33.378
37.508,33.395
37.473,33.412
37.437,33.428
37.4,33.44
37.359,33.451
37.312,33.459
37.258,33.463
37.197,33.464
37.126,33.462
37.046,33.458
36.957,33.452
36.859,33.444
36.754,33.436
36.644,33.427
36.531,33.419
36.416,33.412
36.302,33.406
36.188,33.402
36.078,33.404
35.973,33.412
35.875,33.43
35.787,33.463
35.708,33.515
35.64,33.593
35.584,33.701
35.539,33.846
35.505,34.032
35.481,34.265
35.467,34.544
35.462,34.868
35.465,35.234
35.475,35.636
35.49,36.063
35.51,36.505
35.534,36.951
35.56,37.389
35.586,37.808
35.61,38.199
35.631,38.555
35.647,38.871
35.657,39.14
35.661,39.36
35.658,39.529
35.648,39.648
35.63,39.718
35.603,39.744
35.568,39.732
35.524,39.686
35.474,39.612
35.417,39.516
35.355,39.404
35.289,39.279
35.22,39.146
35.149,39.006
35.078,38.861
35.005,38.713
34.933,38.564
34.863,38.413
34.793,38.261
34.725,38.108
34.659,37.955
34.596,37.801
34.537,37.648
34.48,37.495
34.426,37.344
34.374,37.195
34.322,37.049
34.271,36.907
34.219,36.77
34.166,36.638
34.114,36.511
34.061,36.389
34.009,36.272
33.957,36.161
33.906,36.055
33.855,35.955
33.805,35.86
33.756,35.769
33.71,35.681
33.667,35.595
33.628,35.509
33.593,35.422
33.561,35.335
33.532,35.247
33.507,35.161
33.485,35.078
33.465,34.999
33.448,34.925
33.432,34.86
33.417,34.802
33.401,34.755
33.383,34.717
33.362,34.689
33.339,34.672
33.313,34.667
33.284,34.672
33.251,34.687
33.215,34.712
33.176,34.744
33.136,34.783
33.096,34.827
33.06,34.875
33.032,34.927
33.016,34.982
33.017,35.039
33.04,35.099
33.089,35.159
33.169,35.218
33.286,35.274
33.441,35.327
33.637,35.376
33.873,35.42
34.146,35.459
34.454,35.492
34.791,35.52
35.151,35.54
35.527,35.553
35.91,35.557
36.29,35.552
36.659,35.538
37.012,35.515
37.34,35.483
37.64,35.443
37.907,35.396
38.138,35.341
38.33,35.28
38.483,35.212
38.6,35.139
38.681,35.062
38.73,34.981
38.747,34.898
38.737,34.815
38.704,34.731
38.655,34.649
38.594,34.567
38.525,34.487
38.45,34.41
38.372,34.335
38.294,34.263
38.218,34.194
38.145,34.129
38.076,34.068
38.011,34.011
37.95,33.958
37.892,33.908
37.838,33.858
37.785,33.809
37.734,33.758
37.685,33.706
37.636,33.652
37.588,33.597
37.54,33.542
37.492,33.487
37.442,33.435
37.39,33.386
37.336,33.34
37.279,33.299
37.218,33.263
37.153,33.232
37.084,33.206
37.011,33.183
36.934,33.164
36.853,33.147
36.767,33.133
36.676,33.12
36.581,33.109
36.483,33.098
36.384,33.09
36.282,33.082
36.18,33.077
36.079,33.072
35.979,33.07
35.882,33.068
35.79,33.069
35.702,33.071
35.62,33.073
35.545,33.076
35.477,33.078
35.416,33.079
35.363,33.08
35.317,33.081
35.279,33.082
35.25,33.083
35.23,33.083
35.216,33.084
35.21,33.085
35.209,33.087
35.213,33.088
35.223,33.089
35.236,33.089
35.253,33.088
35.271,33.086
35.289,33.083
35.306,33.079
35.32,33.073
35.33,33.068
35.335,33.063
35.337,33.06
35.334,33.061
35.328,33.068
35.317,33.083
35.302,33.109
35.28,33.15
35.252,33.211
35.217,33.294
35.177,33.407
35.129,33.556
35.073,33.745
35.012,33.979
34.946,34.259
34.877,34.584
34.805,34.952
34.732,35.356
34.658,35.788
34.585,36.239
34.513,36.698
34.442,37.154
34.373,37.595
34.308,38.01
34.247,38.39
34.189,38.727
34.135,39.016
34.082,39.252
34.03,39.435
33.978,39.566
33.927,39.646
33.878,39.68
33.829,39.67
33.782,39.622
33.736,39.54
33.692,39.431
33.65,39.3
33.611,39.153
33.574,38.994
33.538,38.828
33.505,38.659
33.473,38.49
33.442,38.323
33.41,38.161
33.38,38.005
33.351,37.854
33.324,37.709
33.3,37.568
33.276,37.43
33.254,37.293
33.234,37.156
33.213,37.02
33.194,36.882
33.175,36.744
33.156,36.607
33.137,36.472
33.116,36.338
33.094,36.208
33.07,36.081
33.045,35.959
33.02,35.84
32.994,35.725
32.968,35.614
32.941,35.508
32.915,35.408
32.892,35.312
32.873,35.222
32.862,35.139
32.864,35.06
32.883,34.987
32.925,34.917
32.996,34.85
33.101,34.787
33.242,34.728
33.423,34.675
33.646,34.629
33.911,34.591
34.216,34.563
34.555,34.544
34.922,34.535
35.308,34.536
35.705,34.548
36.104,34.57
36.497,34.602
36.875,34.643
37.231,34.692
37.559,34.747
37.854,34.807
38.112,34.87
38.331,34.934
38.508,34.998
38.645,35.06
38.742,35.12
38.803,35.177
38.831,35.23
38.83,35.279
38.804,35.323
38.759,35.361
38.698,35.393
38.624,35.418
38.539,35.438
38.444,35.451
38.342,35.457
38.233,35.457
38.121,35.45
38.011,35.435
37.906,35.413
37.809,35.384
37.722,35.348
37.647,35.304
37.582,35.253
37.529,35.196
37.486,35.134
37.453,35.066
37.427,34.993
37.406,34.917
37.387,34.838
37.367,34.756
37.343,34.673
37.313,34.588
37.278,34.502
37.235,34.417
37.185,34.332
37.126,34.248
37.06,34.168
36.986,34.09
36.904,34.016
36.817,33.947
36.725,33.883
36.628,33.825
36.527,33.772
36.421,33.724
36.312,33.679
36.201,33.639
36.09,33.603
35.982,33.57
35.877,33.542
35.778,33.52
35.685,33.504
35.601,33.491
35.525,33.479
35.459,33.467
35.401,33.452
35.352,33.436
35.311,33.42
35.278,33.403
35.251,33.387
35.229,33.374
35.213,33.363
35.202,33.353
35.198,33.345
35.198,33.339
35.203,33.334
35.211,33.332
35.221,33.334
35.233,33.343
35.246,33.357
35.261,33.374
35.276,33.395
35.29,33.416
35.301,33.438
35.311,33.46
35.317,33.478
35.321,33.489
35.322,33.491
35.316,33.485
35.303,33.47
35.282,33.446
35.252,33.418
35.213,33.385
35.167,33.351
35.113,33.315
35.053,33.281
34.987,33.249
34.915,33.221
34.838,33.198
34.756,33.182
34.671,33.177
34.585,33.184
34.5,33.209
34.416,33.254
34.334,33.323
34.257,33.419
34.184,33.547
34.118,33.71
34.057,33.913
34.002,34.16
33.95,34.451
33.901,34.784
33.856,35.157
33.814,35.561
33.775,35.989
33.739,36.431
33.706,36.876
33.674,37.313
33.642,37.733
33.61,38.126
33.576,38.484
33.543,38.801
33.51,39.071
33.477,39.292
33.444,39.463
33.408,39.586
33.372,39.663
33.334,39.697
33.297,39.694
33.259,39.657
33.221,39.592
33.185,39.503
33.149,39.395
33.114,39.273
33.081,39.139
33.049,38.997
33.021,38.849
32.997,38.697
32.978,38.543
32.964,38.387
32.955,38.229
32.953,38.07
32.959,37.91
32.974,37.75
33.003,37.59
33.048,37.429
33.114,37.268
33.204,37.108
33.323,36.948
33.474,36.79
33.66,36.636
33.881,36.486
34.137,36.343
34.426,36.209
34.742,36.083
35.08,35.966
35.434,35.858
35.795,35.756
36.157,35.66
36.513,35.566
36.854,35.475
37.175,35.385
37.47,35.296
37.736,35.21
37.969,35.126
38.167,35.044
38.33,34.966
38.457,34.892
38.551,34.823
38.614,34.761
38.648,34.707
38.656,34.663
38.642,34.631
38.609,34.611
38.558,34.604
38.494,34.608
38.421,34.624
38.34,34.649
38.254,34.682
38.164,34.721
38.073,34.767
37.981,34.816
37.89,34.868
37.801,34.923
37.715,34.979
37.634,35.036
37.556,35.091
37.482,35.143
37.413,35.191
37.349,35.234
37.289,35.272
37.232,35.303
37.177,35.33
37.121,35.352
37.064,35.371
37.007,35.385
36.948,35.395
36.891,35.401
36.836,35.402
36.782,35.399
36.73,35.389
36.676,35.373
36.622,35.351
36.566,35.322
36.506,35.286
36.44,35.244
36.367,35.196
36.287,35.142
36.198,35.084
36.101,35.022
35.998,34.958
35.889,34.892
35.776,34.824
35.661,34.752
35.547,34.676
35.437,34.597
35.336,34.515
35.246,34.431
35.169,34.346
35.105,34.262
35.055,34.179
35.021,34.098
35,34.02
34.994,33.947
35,33.879
35.018,33.817
35.044,33.761
35.078,33.711
35.116,33.668
35.158,33.63
35.2,33.597
35.241,33.569
35.28,33.544
35.313,33.523
35.339,33.504
35.356,33.487
35.364,33.471
35.364,33.458
35.356,33.447
35.34,33.439
35.317,33.433
35.287,33.428
35.25,33.425
35.206,33.422
35.156,33.417
35.101,33.412
35.04,33.406
34.976,33.398
34.908,33.388
34.839,33.376
34.769,33.361
34.699,33.342
34.63,33.321
34.562,33.296
34.495,33.269
34.428,33.241
34.359,33.212
34.289,33.184
34.218,33.157
34.148,33.133
34.079,33.11
34.01,33.089
33.94,33.071
33.87,33.055
33.8,33.044
33.731,33.038
33.664,33.04
33.602,33.055
33.544,33.085
33.492,33.137
33.446,33.216
33.407,33.327
33.374,33.477
33.348,33.67
33.327,33.91
33.31,34.197
33.295,34.531
33.28,34.906
33.263,35.316
33.245,35.754
33.224,36.208
33.2,36.669
33.174,37.125
33.144,37.567
33.112,37.985
33.078,38.369
33.044,38.713
33.008,39.011
32.975,39.262
32.947,39.462
32.927,39.615
32.919,39.72
32.927,39.782
32.955,39.805
33.009,39.794
33.095,39.753
33.218,39.689
33.381,39.606
33.587,39.51
33.835,39.405
34.122,39.292
34.443,39.175
34.793,39.054
35.165,38.932
35.55,38.809
35.941,38.686
36.328,38.564
36.705,38.443
37.064,38.323
37.398,38.203
37.703,38.083
37.973,37.964
38.207,37.846
38.404,37.728
38.562,37.612
38.683,37.497
38.768,37.384
38.819,37.271
38.839,37.16
38.833,37.051
38.805,36.943
38.76,36.837
38.702,36.735
38.634,36.636
38.56,36.542
38.483,36.451
38.406,36.365
38.33,36.28
38.258,36.197
38.189,36.113
38.125,36.03
38.067,35.947
38.013,35.864
37.963,35.784
37.918,35.706
37.878,35.633
37.841,35.566
37.806,35.506
37.773,35.453
37.738,35.408
37.702,35.371
37.664,35.342
37.622,35.323
37.576,35.314
37.523,35.313
37.461,35.32
37.391,35.334
37.311,35.355
37.224,35.381
37.13,35.411
37.029,35.444
36.921,35.477
36.808,35.51
36.691,35.54
36.572,35.566
36.451,35.59
36.331,35.61
36.211,35.628
36.093,35.645
35.979,35.662
35.87,35.678
35.769,35.693
35.676,35.704
35.592,35.709
35.518,35.707
35.454,35.697
35.399,35.679
35.353,35.654
35.315,35.623
35.285,35.587
35.264,35.547
35.251,35.502
35.244,35.452
35.242,35.397
35.244,35.337
35.251,35.273
35.262,35.205
35.277,35.134
35.293,35.063
35.31,34.993
35.328,34.923
35.348,34.857
35.367,34.792
35.384,34.729
35.396,34.665
35.401,34.599
35.399,34.533
35.389,34.466
35.37,34.4
35.343,34.335
35.311,34.275
35.274,34.219
35.233,34.168
35.188,34.123
35.14,34.083
35.089,34.047
35.036,34.013
34.984,33.981
34.93,33.95
34.875,33.922
34.816,33.897
34.753,33.875
34.687,33.855
34.618,33.838
34.546,33.823
34.472,33.812
34.397,33.801
34.321,33.791
34.247,33.779
34.175,33.768
34.105,33.757
34.04,33.743
33.981,33.727
33.926,33.709
33.876,33.691
33.831,33.673
33.789,33.655
33.75,33.64
33.715,33.627
33.683,33.618
33.654,33.613
33.627,33.612
33.602,33.614
33.578,33.62
33.553,33.627
33.528,33.635
33.502,33.646
33.475,33.659
33.448,33.675
33.419,33.696
33.388,33.723
33.356,33.759
33.323,33.808
33.291,33.874
33.26,33.961
33.231,34.076
33.204,34.224
33.182,34.409
33.167,34.634
33.161,34.898
33.168,35.199
33.192,35.532
33.237,35.891
33.308,36.267
33.41,36.653
33.546,37.038
33.718,37.415
33.929,37.776
34.178,38.112
34.462,38.419
34.777,38.692
35.119,38.928
35.479,39.125
35.851,39.281
36.226,39.398
36.596,39.475
36.954,39.514
37.291,39.519
37.602,39.492
37.883,39.439
38.129,39.364
38.34,39.271
38.515,39.167
38.653,39.054
38.757,38.938
38.827,38.821
38.867,38.706
38.881,38.595
38.873,38.488
38.846,38.386
38.804,38.289
38.749,38.197
38.685,38.109
38.616,38.023
38.545,37.941
38.473,37.862
38.402,37.785
38.333,37.712
38.266,37.644
38.202,37.579
38.143,37.518
38.088,37.46
38.038,37.404
37.992,37.349
37.949,37.293
37.908,37.235
37.871,37.174
37.835,37.109
37.799,37.039
37.764,36.965
37.728,36.886
37.691,36.802
37.652,36.714
37.61,36.622
37.565,36.526
37.516,36.427
37.461,36.326
37.4,36.225
37.334,36.126
37.261,36.031
37.184,35.941
37.101,35.859
37.014,35.786
36.922,35.724
36.827,35.672
36.728,35.631
36.628,35.6
36.525,35.577
36.42,35.562
36.315,35.551
36.209,35.546
36.105,35.545
36.003,35.549
35.906,35.559
35.815,35.575
35.731,35.597
35.655,35.625
35.587,35.657
35.53,35.69
35.482,35.724
35.446,35.756
35.42,35.787
35.405,35.814
35.399,35.837
35.402,35.856
35.411,35.87
35.425,35.877
35.444,35.879
35.464,35.873
35.484,35.86
35.501,35.839
35.515,35.812
35.524,35.778
35.529,35.74
35.53,35.697
35.525,35.648
35.513,35.595
35.495,35.539
35.468,35.479
35.434,35.418
35.394,35.354
35.348,35.29
35.297,35.223
35.242,35.154
35.18,35.083
35.113,35.008
35.04,34.932
34.962,34.854
34.88,34.776
34.798,34.698
34.717,34.623
34.64,34.55
34.567,34.481
34.499,34.415
34.439,34.353
34.384,34.295
34.335,34.242
34.291,34.193
34.25,34.148
34.21,34.107
34.171,34.068
34.132,34.033
34.093,34
34.054,33.97
34.013,33.942
33.971,33.915
33.927,33.89
33.882,33.866
33.835,33.842
33.787,33.819
33.74,33.798
33.693,33.779
33.648,33.763
33.603,33.752
33.559,33.744
33.516,33.739
33.476,33.737
33.437,33.736
33.401,33.735
33.366,33.735
33.334,33.734
33.304,33.732
33.276,33.731
33.25,33.728
33.227,33.725
33.205,33.721
33.185,33.715
33.164,33.708
33.144,33.699
33.123,33.689
33.102,33.678
33.084,33.669
33.071,33.663
33.066,33.663
33.076,33.671
33.103,33.691
33.153,33.727
33.233,33.781
33.346,33.859
33.498,33.965
33.691,34.102
33.925,34.274
34.198,34.483
34.508,34.728
34.848,35.009
35.211,35.32
35.59,35.655
35.975,36.008
36.356,36.371
36.726,36.736
37.077,37.092
37.402,37.434
37.697,37.753
37.957,38.043
38.18,38.299
38.365,38.519
38.511,38.7
38.62,38.842
38.695,38.947
38.738,39.015
38.753,39.049
38.744,39.052
38.715,39.027
38.669,38.98
38.611,38.913
38.544,38.831
38.471,38.737
38.395,38.634
38.318,38.525
38.243,38.411
38.172,38.295
38.106,38.18
38.044,38.069
37.987,37.963
37.934,37.862
37.884,37.768
37.839,37.681
37.797,37.6
37.759,37.525
37.722,37.456
37.686,37.392
37.65,37.334
37.612,37.28
37.572,37.23
37.53,37.184
37.485,37.141
37.434,37.1
37.378,37.062
37.316,37.026
37.249,36.99
37.175,36.953
37.096,36.913
37.011,36.868
36.92,36.818
36.824,36.76
36.723,36.694
36.618,36.622
36.51,36.545
36.4,36.464
36.289,36.38
36.178,36.296
36.069,36.211
35.963,36.13
35.862,36.051
35.766,35.978
35.676,35.911
35.592,35.851
35.516,35.799
35.448,35.755
35.388,35.72
35.335,35.693
35.291,35.674
35.254,35.662
35.223,35.656
35.198,35.656
35.178,35.661
35.164,35.669
35.155,35.681
35.151,35.693
35.151,35.707
35.153,35.723
35.156,35.739
35.16,35.756
35.164,35.773
35.17,35.791
35.175,35.809
35.181,35.825
35.185,35.839
35.187,35.85
35.187,35.856
35.184,35.857
35.176,35.851
35.164,35.839
35.147,35.819
35.125,35.792
35.097,35.758
35.063,35.717
35.024,35.67
34.978,35.616
34.926,35.556
34.868,35.492
34.802,35.423
34.73,35.351
34.65,35.278
34.566,35.205
34.479,35.132
34.388,35.06
34.293,34.992
34.193,34.925
34.089,34.861
33.981,34.799
33.874,34.739
33.771,34.68
33.673,34.624
33.582,34.569
33.499,34.516
33.424,34.464
33.36,34.411
33.306,34.358
33.262,34.306
33.229,34.255
33.205,34.206
33.188,34.159
33.175,34.116
33.164,34.077
33.154,34.042
33.144,34.01
33.131,33.982
33.117,33.957
33.1,33.933
33.081,33.91
33.059,33.889
33.036,33.869
33.01,33.851
32.983,33.834
32.956,33.819
32.929,33.807
32.901,33.798
32.873,33.793
32.844,33.789
32.814,33.789
32.785,33.789
32.757,33.79
32.73,33.791
32.705,33.791
32.683,33.789
32.665,33.785
32.651,33.778
32.642,33.769
32.641,33.758
32.651,33.745
32.676,33.731
32.723,33.715
32.795,33.7
32.897,33.686
33.035,33.672
33.212,33.66
33.431,33.648
33.691,33.636
33.991,33.624
34.326,33.612
34.688,33.601
35.07,33.59
35.465,33.58
35.863,33.571
36.257,33.565
36.637,33.562
36.996,33.565
37.329,33.578
37.628,33.604
37.892,33.649
38.117,33.718
38.301,33.816
38.445,33.948
38.551,34.117
38.62,34.323
38.656,34.566
38.663,34.843
38.645,35.151
38.606,35.483
38.552,35.833
38.485,36.193
38.411,36.555
38.331,36.909
38.249,37.247
38.166,37.562
38.083,37.847
38.002,38.1
37.926,38.317
37.854,38.499
37.788,38.644
37.727,38.754
37.671,38.83
37.62,38.874
37.574,38.89
37.533,38.881
37.495,38.851
37.46,38.804
37.426,38.745
37.393,38.676
37.36,38.599
37.325,38.517
37.287,38.434
37.246,38.35
37.2,38.266
37.148,38.183
37.088,38.101
37.021,38.02
36.946,37.939
36.863,37.858
36.773,37.777
36.675,37.696
36.569,37.617
36.457,37.54
36.34,37.465
36.22,37.395
36.098,37.329
35.975,37.266
35.852,37.208
35.731,37.155
35.613,37.106
35.502,37.061
35.398,37.018
35.305,36.978
35.222,36.939
35.15,36.899
35.091,36.856
35.045,36.81
35.011,36.76
34.988,36.704
34.977,36.644
34.975,36.578
34.982,36.508
34.995,36.432
35.013,36.352
35.036,36.269
35.059,36.184
35.083,36.1
35.106,36.018
35.125,35.941
35.14,35.87
35.149,35.807
35.154,35.754
35.154,35.71
35.151,35.677
35.143,35.655
35.13,35.644
35.112,35.643
35.09,35.652
35.064,35.668
35.034,35.689
35.001,35.714
34.962,35.741
34.92,35.769
34.872,35.794
34.821,35.817
34.766,35.837
34.708,35.854
34.648,35.868
34.585,35.877
34.519,35.882
34.451,35.882
34.38,35.875
34.307,35.864
34.232,35.847
34.155,35.826
34.076,35.801
33.995,35.77
33.914,35.735
33.832,35.696
33.753,35.653
33.676,35.604
33.603,35.551
33.533,35.493
33.469,35.431
33.408,35.365
33.352,35.296
33.3,35.224
33.254,35.15
33.213,35.074
33.177,34.998
33.144,34.923
33.113,34.849
33.085,34.778
33.059,34.711
33.034,34.648
33.011,34.59
32.987,34.537
32.962,34.488
32.935,34.444
32.908,34.402
32.88,34.361
32.85,34.321
32.819,34.281
32.786,34.242
32.752,34.204
32.717,34.167
32.68,34.131
32.646,34.096
32.616,34.063
32.594,34.031
32.585,34.001
32.591,33.973
32.616,33.949
32.665,33.929
32.742,33.914
32.852,33.904
33.002,33.898
33.195,33.897
33.431,33.898
33.709,33.901
34.026,33.905
34.376,33.909
34.751,33.914
35.145,33.918
35.547,33.921
35.949,33.924
36.343,33.925
36.721,33.925
37.073,33.923
37.395,33.921
37.681,33.916
37.929,33.91
38.138,33.901
38.308,33.889
38.44,33.875
38.536,33.857
38.599,33.838
38.633,33.816
38.641,33.794
38.627,33.772
38.594,33.751
38.546,33.732
38.487,33.715
38.42,33.701
38.347,33.689
38.27,33.679
38.19,33.67
38.109,33.662
38.027,33.653
37.947,33.644
37.87,33.633
37.794,33.623
37.719,33.611
37.645,33.6
37.572,33.588
37.5,33.576
37.429,33.564
37.359,33.553
37.288,33.544
37.215,33.539
37.141,33.541
37.064,33.55
36.985,33.572
36.906,33.609
36.823,33.665
36.738,33.744
36.649,33.85
36.558,33.988
36.465,34.16
36.37,34.368
36.273,34.613
36.174,34.893
36.073,35.203
35.97,35.538
35.866,35.89
35.761,36.251
35.655,36.614
35.55,36.971
35.448,37.313
35.348,37.633
35.252,37.927
35.162,38.189
35.077,38.417
35.001,38.608
34.931,38.764
34.869,38.885
34.813,38.973
34.765,39.032
34.725,39.064
34.693,39.072
34.669,39.059
34.653,39.028
34.644,38.982
34.643,38.924
34.648,38.856
34.659,38.781
34.675,38.701
34.696,38.616
34.719,38.529
34.744,38.44
34.77,38.351
34.795,38.263
34.818,38.176
34.837,38.093
34.851,38.012
34.86,37.934
34.863,37.858
34.858,37.786
34.846,37.718
34.827,37.653
34.801,37.593
34.767,37.538
34.725,37.487
34.676,37.438
34.619,37.391
34.554,37.345
34.485,37.297
34.409,37.247
34.33,37.195
34.248,37.139
34.165,37.079
34.082,37.014
34,36.945
33.92,36.87
33.844,36.79
33.772,36.707
33.703,36.621
33.638,36.535
33.576,36.449
33.519,36.367
33.466,36.289
33.418,36.219
33.373,36.157
33.33,36.102
33.289,36.054
33.249,36.012
33.209,35.976
33.169,35.946
33.129,35.921
33.089,35.903
33.048,35.89
33.007,35.884
32.966,35.885
32.923,35.894
32.881,35.911
32.838,35.935
32.795,35.963
32.752,35.993
32.709,36.021
32.666,36.044
32.623,36.062
32.58,36.074
32.539,36.08
32.5,36.081
32.465,36.078
32.435,36.072
32.411,36.064
32.395,36.055
32.387,36.046
32.391,36.038
32.409,36.031
32.448,36.025
32.509,36.016
32.599,36.004
32.72,35.987
32.872,35.963
33.057,35.931
33.278,35.891
33.537,35.844
33.832,35.789
34.162,35.727
34.525,35.661
34.916,35.59
35.327,35.516
35.753,35.441
36.182,35.365
36.604,35.291
37.01,35.219
37.392,35.151
37.741,35.085
38.051,35.022
38.32,34.962
38.544,34.904
38.723,34.848
38.858,34.793
38.95,34.74
39.004,34.69
39.023,34.641
39.011,34.595
38.973,34.551
38.913,34.509
38.837,34.468
38.749,34.429
38.652,34.393
38.552,34.361
38.45,34.334
38.35,34.312
38.253,34.296
38.159,34.284
38.071,34.277
37.989,34.272
37.912,34.269
37.84,34.265
37.773,34.26
37.71,34.254
37.653,34.246
37.599,34.237
37.549,34.227
37.501,34.216
37.455,34.205
37.409,34.192
37.363,34.179
37.315,34.164
37.265,34.148
37.21,34.132
37.149,34.118
37.079,34.104
37.001,34.093
36.914,34.082
36.817,34.073
36.711,34.064
36.596,34.055
36.473,34.045
36.343,34.034
36.21,34.023
36.075,34.011
35.941,34
35.81,33.99
35.684,33.982
35.566,33.975
35.458,33.97
35.362,33.965
35.277,33.961
35.204,33.957
35.142,33.952
35.09,33.946
35.048,33.938
35.015,33.928
34.99,33.916
34.973,33.901
34.963,33.885
34.959,33.867
34.958,33.847
34.962,33.825
34.968,33.801
34.976,33.776
34.985,33.749
34.993,33.721
35,33.693
35.006,33.665
35.008,33.639
35.009,33.615
35.006,33.595
35.002,33.58
34.993,33.569
34.981,33.564
34.964,33.566
34.943,33.577
34.918,33.603
34.889,33.647
34.856,33.714
34.82,33.809
34.779,33.937
34.735,34.101
34.688,34.302
34.638,34.541
34.586,34.813
34.531,35.116
34.472,35.444
34.411,35.791
34.346,36.149
34.277,36.512
34.206,36.871
34.134,37.219
34.06,37.548
33.985,37.853
33.908,38.128
33.83,38.37
33.75,38.575
33.668,38.742
33.587,38.871
33.506,38.962
33.428,39.016
33.353,39.036
33.283,39.027
33.219,38.992
33.161,38.936
33.111,38.863
33.067,38.777
33.03,38.684
32.998,38.588
32.969,38.492
32.943,38.4
32.919,38.314
32.897,38.234
32.877,38.16
32.859,38.093
32.84,38.03
32.821,37.973
32.801,37.918
32.778,37.868
32.751,37.82
32.72,37.775
32.685,37.731
32.646,37.689
32.604,37.649
32.56,37.608
32.514,37.567
32.469,37.527
32.427,37.485
32.391,37.442
32.364,37.398
32.349,37.351
32.352,37.301
32.376,37.247
32.428,37.189
32.512,37.128
32.635,37.064
32.801,36.998
33.014,36.931
33.276,36.864
33.585,36.797
33.938,36.729
34.33,36.659
34.751,36.587
35.193,36.514
35.645,36.44
36.098,36.364
36.541,36.29
36.966,36.219
37.365,36.151
37.733,36.089
38.065,36.033
38.357,35.986
38.607,35.946
38.812,35.915
38.972,35.891
39.088,35.872
39.163,35.859
39.199,35.85
39.202,35.846
39.178,35.847
39.13,35.852
39.066,35.863
38.989,35.879
38.904,35.899
38.814,35.922
38.721,35.946
38.63,35.97
38.541,35.991
38.456,36.008
38.375,36.018
38.298,36.02
38.225,36.014
38.154,36.001
38.085,35.981
38.018,35.955
37.951,35.924
37.883,35.889
37.815,35.851
37.745,35.811
37.674,35.769
37.602,35.725
37.527,35.68
37.451,35.632
37.372,35.581
37.292,35.527
37.211,35.47
37.128,35.409
37.044,35.346
36.957,35.281
36.866,35.215
36.771,35.146
36.671,35.075
36.567,35.004
36.462,34.931
36.353,34.858
36.243,34.784
36.132,34.712
36.02,34.643
35.909,34.58
35.8,34.521
35.694,34.47
35.591,34.425
35.49,34.386
35.394,34.351
35.302,34.321
35.214,34.293
35.132,34.267
35.056,34.243
34.987,34.221
34.926,34.201
34.872,34.182
34.828,34.166
34.792,34.15
34.766,34.135
34.749,34.12
34.742,34.103
34.743,34.085
34.75,34.066
34.763,34.045
34.778,34.023
34.796,34.001
34.815,33.979
34.832,33.959
34.848,33.941
34.861,33.927
34.871,33.916
34.876,33.909
34.877,33.904
34.871,33.901
34.858,33.898
34.837,33.895
34.809,33.892
34.773,33.889
34.73,33.886
34.68,33.885
34.623,33.885
34.56,33.887
34.492,33.889
34.419,33.892
34.342,33.894
34.263,33.894
34.182,33.891
34.102,33.884
34.021,33.875
33.942,33.862
33.862,33.847
33.784,33.829
33.707,33.808
33.631,33.784
33.559,33.755
33.488,33.724
33.42,33.689
33.355,33.652
33.292,33.614
33.231,33.575
33.173,33.536
33.117,33.498
33.063,33.46
33.011,33.422
32.96,33.385
32.91,33.346
32.86,33.308
32.811,33.27
32.763,33.232
32.718,33.195
32.675,33.161
32.634,33.129
32.595,33.101
32.557,33.077
32.519,33.058
32.482,33.045
32.447,33.042
32.412,33.053
32.379,33.082
32.346,33.135
32.314,33.218
32.282,33.337
32.252,33.494
32.223,33.692
32.196,33.929
32.17,34.205
32.145,34.513
32.123,34.849
32.107,35.207
32.098,35.578
32.1,35.953
32.118,36.325
32.157,36.686
32.224,37.028
32.325,37.346
32.465,37.634
32.65,37.89
32.882,38.112
33.165,38.3
33.496,38.452
33.87,38.571
34.281,38.656
34.72,38.711
35.179,38.738
35.646,38.74
36.111,38.722
36.562,38.686
36.99,38.636
37.388,38.574
37.748,38.503
38.067,38.425
38.341,38.344
38.569,38.26
38.75,38.176
38.886,38.091
38.98,38.006
39.035,37.922
39.056,37.838
39.046,37.755
39.011,37.674
38.953,37.595
38.879,37.518
38.793,37.445
38.697,37.375
38.597,37.309
38.493,37.247
38.389,37.19
38.286,37.138
38.186,37.091
38.091,37.047
37.999,37.005
37.912,36.963
37.828,36.92
37.747,36.874
37.668,36.825
37.592,36.771
37.517,36.714
37.443,36.657
37.368,36.605
37.293,36.558
37.217,36.514
37.14,36.47
37.062,36.422
36.981,36.366
36.894,36.301
36.796,36.226
36.687,36.141
36.567,36.047
36.437,35.949
36.3,35.849
36.159,35.753
36.019,35.665
35.882,35.588
35.75,35.523
35.624,35.471
35.506,35.431
35.395,35.402
35.292,35.383
35.196,35.373
35.105,35.371
35.021,35.377
34.944,35.391
34.874,35.412
34.809,35.438
34.751,35.469
34.698,35.502
34.653,35.537
34.616,35.571
34.587,35.603
34.567,35.63
34.556,35.651
34.553,35.666
34.555,35.674
34.561,35.676
34.571,35.671
34.584,35.659
34.598,35.641
34.613,35.615
34.629,35.584
34.643,35.546
34.657,35.504
34.668,35.456
34.677,35.404
34.682,35.347
34.685,35.284
34.683,35.217
34.678,35.144
34.667,35.067
34.653,34.987
34.636,34.906
34.615,34.824
34.591,34.744
34.562,34.664
34.528,34.586
34.488,34.509
34.443,34.433
34.393,34.357
34.337,34.284
34.277,34.213
34.214,34.147
34.148,34.084
34.079,34.026
34.007,33.971
33.934,33.92
33.861,33.871
33.788,33.824
33.715,33.776
33.643,33.729
33.57,33.684
33.499,33.64
33.429,33.599
33.361,33.561
33.295,33.525
33.232,33.491
33.173,33.46
33.118,33.43
33.069,33.401
33.024,33.373
32.983,33.346
32.946,33.32
32.913,33.297
32.882,33.278
32.851,33.264
32.819,33.255
32.786,33.249
32.751,33.246
32.713,33.246
32.674,33.248
32.632,33.25
32.588,33.254
32.542,33.257
32.494,33.26
32.447,33.262
32.403,33.265
32.364,33.267
32.333,33.269
32.313,33.272
32.306,33.275
32.317,33.279
32.351,33.284
32.412,33.288
32.508,33.292
32.641,33.294
32.818,33.296
33.038,33.295
33.304,33.293
33.614,33.289
33.963,33.282
34.348,33.273
34.761,33.259
35.192,33.241
35.631,33.219
36.07,33.192
36.496,33.162
36.903,33.13
37.282,33.096
37.626,33.062
37.932,33.029
38.195,32.996
38.413,32.965
38.588,32.935
38.719,32.906
38.81,32.876
38.864,32.846
38.887,32.816
38.88,32.788
38.85,32.763
38.799,32.744
38.731,32.733
38.649,32.736
38.557,32.754
38.457,32.794
38.353,32.859
38.246,32.955
38.137,33.086
38.028,33.259
37.918,33.476
37.808,33.739
37.698,34.045
37.589,34.389
37.483,34.765
37.378,35.164
37.274,35.576
37.17,35.991
37.066,36.401
36.962,36.795
36.858,37.166
36.755,37.505
36.651,37.806
36.547,38.065
36.442,38.28
36.334,38.45
36.224,38.577
36.111,38.664
35.997,38.714
35.879,38.732
35.759,38.723
35.637,38.69
35.514,38.638
35.39,38.572
35.267,38.494
35.145,38.408
35.027,38.317
34.912,38.222
34.803,38.126
34.698,38.03
34.601,37.935
34.512,37.842
34.431,37.754
34.36,37.669
34.305,37.589
34.266,37.512
34.245,37.438
34.238,37.366
34.242,37.294
34.253,37.223
34.269,37.15
34.286,37.075
34.304,36.999
34.321,36.92
34.334,36.841
34.344,36.761
34.352,36.681
34.357,36.602
34.361,36.524
34.365,36.446
34.37,36.367
34.377,36.287
34.385,36.203
34.395,36.116
34.405,36.024
34.414,35.929
34.422,35.832
34.428,35.735
34.429,35.64
34.425,35.546
34.416,35.457
34.399,35.37
34.374,35.288
34.339,35.209
34.296,35.133
34.244,35.061
34.185,34.993
34.118,34.929
34.045,34.872
33.968,34.823
33.887,34.784
33.805,34.756
33.723,34.74
33.644,34.737
33.57,34.746
33.5,34.767
33.436,34.797
33.376,34.836
33.32,34.88
33.268,34.928
33.22,34.978
33.176,35.029
33.133,35.078
33.091,35.126
33.048,35.172
33.003,35.214
32.957,35.253
32.908,35.286
32.858,35.312
32.807,35.331
32.756,35.341
32.704,35.342
32.653,35.335
32.602,35.319
32.553,35.297
32.507,35.269
32.466,35.236
32.429,35.198
32.396,35.156
32.367,35.11
32.34,35.06
32.317,35.005
32.299,34.946
32.288,34.884
32.287,34.816
32.298,34.745
32.325,34.669
32.373,34.59
32.448,34.508
32.555,34.424
32.699,34.339
32.888,34.255
33.123,34.171
33.407,34.09
33.738,34.013
34.112,33.94
34.523,33.871
34.962,33.807
35.419,33.747
35.885,33.693
36.347,33.643
36.796,33.598
37.224,33.557
37.621,33.52
37.982,33.485
38.3,33.451
38.572,33.418
38.796,33.385
38.974,33.352
39.108,33.321
39.202,33.292
39.258,33.267
39.282,33.246
39.277,33.23
39.249,33.217
39.202,33.209
39.14,33.203
39.067,33.199
38.985,33.196
38.897,33.194
38.805,33.192
38.712,33.191
38.618,33.189
38.524,33.187
38.43,33.185
38.336,33.181
38.242,33.175
38.147,33.168
38.052,33.16
37.957,33.152
37.862,33.146
37.766,33.143
37.669,33.142
37.572,33.145
37.475,33.151
37.378,33.159
37.281,33.167
37.182,33.173
37.082,33.177
36.98,33.177
36.878,33.172
36.774,33.163
36.667,33.149
36.557,33.131
36.442,33.109
36.324,33.082
36.201,33.051
36.074,33.018
35.943,32.982
35.809,32.945
35.672,32.907
35.535,32.871
35.399,32.837
35.266,32.807
35.138,32.782
35.016,32.763
34.902,32.751
34.794,32.748
34.694,32.755
34.603,32.775
34.522,32.812
34.454,32.87
34.398,32.954
34.356,33.069
34.327,33.219
34.309,33.408
34.302,33.639
34.305,33.912
34.317,34.227
34.336,34.578
34.362,34.961
34.392,35.368
34.426,35.791
34.462,36.218
34.499,36.641
34.535,37.051
34.568,37.437
34.597,37.794
34.619,38.115
34.633,38.396
34.639,38.635
34.638,38.83
34.633,38.981
34.626,39.091
34.616,39.163
34.601,39.199
34.578,39.203
34.545,39.179
34.501,39.13
34.449,39.06
34.387,38.974
34.317,38.875
34.238,38.767
34.153,38.654
34.065,38.538
33.975,38.421
33.885,38.307
33.797,38.194
33.713,38.083
33.631,37.976
33.553,37.872
33.479,37.771
33.409,37.673
33.343,37.578
33.28,37.487
33.222,37.402
33.166,37.322
33.114,37.246
33.064,37.175
33.018,37.11
32.975,37.05
32.936,36.995
32.898,36.946
32.862,36.9
32.827,36.857
32.792,36.816
32.757,36.774
32.722,36.731
32.687,36.685
32.653,36.636
32.62,36.583
32.589,36.523
32.562,36.456
32.538,36.383
32.52,36.305
32.51,36.221
32.51,36.133
32.521,36.041
32.548,35.947
32.593,35.852
32.663,35.757
32.763,35.664
32.901,35.573
33.081,35.486
33.308,35.406
33.583,35.334
33.904,35.269
34.27,35.212
34.675,35.164
35.112,35.124
35.571,35.092
36.043,35.071
36.516,35.059
36.98,35.058
37.423,35.067
37.837,35.086
38.213,35.111
38.545,35.142
38.83,35.177
39.066,35.214
39.251,35.253
39.387,35.291
39.476,35.327
39.523,35.358
39.532,35.384
39.507,35.405
39.456,35.418
39.382,35.424
39.292,35.423
39.188,35.414
39.077,35.398
38.96,35.374
38.839,35.341
38.717,35.301
38.595,35.252
38.474,35.195
38.356,35.131
38.243,35.06
38.137,34.984
38.04,34.904
37.949,34.823
37.865,34.741
37.786,34.659
37.711,34.577
37.638,34.496
37.566,34.414
37.494,34.333
37.421,34.251
37.345,34.17
37.268,34.09
37.188,34.013
37.104,33.937
37.017,33.864
36.924,33.794
36.826,33.727
36.719,33.664
36.604,33.604
36.48,33.549
36.348,33.499
36.21,33.453
36.065,33.41
35.916,33.371
35.764,33.334
35.609,33.299
35.454,33.266
35.303,33.234
35.156,33.205
35.015,33.177
34.882,33.152
34.758,33.127
34.645,33.105
34.546,33.084
34.462,33.066
34.393,33.051
34.34,33.038
34.301,33.03
34.277,33.027
34.265,33.028
34.265,33.034
34.276,33.044
34.295,33.056
34.321,33.071
34.351,33.085
34.382,33.098
34.412,33.109
34.439,33.117
34.462,33.121
34.481,33.123
34.494,33.121
34.5,33.117
34.499,33.112
34.493,33.105
34.481,33.097
34.466,33.089
34.448,33.082
34.426,33.076
34.401,33.072
34.373,33.071
34.342,33.073
34.31,33.075
34.276,33.077
34.24,33.076
34.202,33.072
34.161,33.064
34.117,33.052
34.069,33.038
34.018,33.022
33.965,33.004
33.911,32.986
33.855,32.967
33.797,32.947
33.738,32.926
33.677,32.904
33.616,32.88
33.556,32.856
33.495,32.832
33.433,32.809
33.37,32.79
33.307,32.777
33.243,32.773
33.178,32.781
33.115,32.804
33.053,32.847
32.994,32.916
32.937,33.014
32.883,33.148
32.831,33.322
32.781,33.541
32.735,33.807
32.692,34.117
32.653,34.471
32.616,34.861
32.58,35.279
32.547,35.716
32.515,36.161
32.486,36.603
32.461,37.032
32.439,37.44
32.422,37.817
32.411,38.157
32.407,38.456
32.413,38.712
32.433,38.923
32.473,39.089
32.539,39.212
32.638,39.295
32.775,39.34
32.955,39.353
33.182,39.337
33.46,39.297
33.791,39.237
34.171,39.161
34.596,39.073
35.058,38.976
35.546,38.874
36.049,38.769
36.555,38.664
37.05,38.561
37.521,38.46
37.956,38.362
38.346,38.266
38.685,38.173
38.971,38.082
39.201,37.994
39.376,37.911
39.498,37.832
39.572,37.758
39.601,37.687
39.593,37.619
39.552,37.551
39.485,37.483
39.396,37.414
39.29,37.343
39.172,37.272
39.045,37.199
38.914,37.125
38.781,37.05
38.649,36.973
38.519,36.894
38.394,36.813
38.273,36.729
38.16,36.641
38.054,36.551
37.954,36.458
37.862,36.362
37.775,36.264
37.695,36.163
37.62,36.06
37.547,35.956
37.476,35.851
37.405,35.748
37.333,35.646
37.259,35.548
37.184,35.454
37.106,35.367
37.024,35.289
36.937,35.22
36.844,35.161
36.743,35.113
36.634,35.077
36.518,35.05
36.395,35.034
36.264,35.028
36.126,35.029
35.983,35.039
35.837,35.054
35.689,35.075
35.541,35.101
35.396,35.13
35.257,35.161
35.124,35.192
35.001,35.222
34.888,35.25
34.786,35.276
34.697,35.3
34.621,35.321
34.557,35.34
34.504,35.357
34.461,35.37
34.427,35.379
34.401,35.383
34.384,35.381
34.372,35.373
34.365,35.361
34.361,35.342
34.359,35.317
34.359,35.286
34.36,35.247
34.362,35.202
34.366,35.151
34.371,35.093
34.375,35.029
34.377,34.961
34.377,34.888
34.374,34.813
34.37,34.734
34.362,34.655
34.353,34.574
34.339,34.492
34.322,34.409
34.3,34.326
34.274,34.244
34.244,34.162
34.21,34.08
34.172,34
34.13,33.921
34.084,33.844
34.033,33.77
33.979,33.699
33.922,33.633
33.863,33.571
33.799,33.514
33.732,33.465
33.66,33.421
33.584,33.383
33.503,33.35
33.42,33.321
33.335,33.295
33.25,33.271
33.166,33.249
33.082,33.226
33,33.204
32.92,33.183
32.844,33.163
32.771,33.144
32.705,33.126
32.644,33.111
32.59,33.099
32.543,33.089
32.502,33.081
32.466,33.077
32.435,33.075
32.407,33.076
32.383,33.079
32.359,33.083
32.334,33.089
32.309,33.095
32.282,33.101
32.253,33.107
32.221,33.112
32.188,33.117
32.154,33.122
32.119,33.127
32.086,33.131
32.056,33.134
32.033,33.135
32.02,33.135
32.022,33.133
32.046,33.13
32.098,33.126
32.183,33.122
32.308,33.117
32.48,33.111
32.704,33.103
32.983,33.093
33.317,33.081
33.703,33.067
34.135,33.052
34.604,33.035
35.1,33.018
35.611,33
36.126,32.984
36.631,32.968
37.115,32.955
37.568,32.944
37.98,32.934
38.345,32.922
38.657,32.909
38.916,32.894
39.119,32.878
39.267,32.863
39.365,32.851
39.418,32.846
39.437,32.85
39.429,32.868
39.4,32.905
39.354,32.966
39.293,33.059
39.218,33.187
39.131,33.357
39.033,33.573
38.927,33.835
38.813,34.141
38.693,34.489
38.568,34.873
38.438,35.286
38.306,35.721
38.172,36.167
38.037,36.616
37.902,37.058
37.769,37.482
37.639,37.879
37.512,38.243
37.389,38.568
37.27,38.849
37.155,39.084
37.043,39.27
36.935,39.407
36.828,39.498
36.724,39.547
36.618,39.557
36.511,39.535
36.402,39.485
36.289,39.411
36.174,39.318
36.054,39.21
35.929,39.089
35.8,38.961
35.667,38.828
35.532,38.692
35.394,38.556
35.256,38.421
35.12,38.288
34.988,38.157
34.86,38.03
34.739,37.908
34.625,37.79
34.52,37.677
34.425,37.57
34.339,37.467
34.264,37.369
34.2,37.275
34.145,37.185
34.099,37.101
34.063,37.021
34.035,36.944
34.016,36.872
34.004,36.803
33.999,36.736
34.001,36.672
34.008,36.608
34.021,36.545
34.038,36.48
34.059,36.413
34.082,36.343
34.107,36.268
34.133,36.189
34.16,36.104
34.186,36.015
34.211,35.923
34.234,35.828
34.255,35.73
34.271,35.632
34.282,35.535
34.287,35.439
34.286,35.347
34.278,35.258
34.264,35.174
34.242,35.096
34.212,35.027
34.174,34.968
34.128,34.919
34.074,34.883
34.014,34.86
33.949,34.849
33.88,34.85
33.809,34.862
33.735,34.883
33.661,34.912
33.587,34.947
33.515,34.987
33.444,35.027
33.377,35.068
33.312,35.107
33.25,35.143
33.19,35.174
33.133,35.2
33.08,35.219
33.03,35.234
32.984,35.243
32.939,35.248
32.896,35.248
32.852,35.244
32.807,35.235
32.763,35.221
32.719,35.2
32.676,35.174
32.632,35.141
32.588,35.102
32.543,35.057
32.498,35.007
32.452,34.95
32.409,34.887
32.369,34.818
32.333,34.744
32.303,34.665
32.279,34.584
32.265,34.502
32.262,34.42
32.274,34.34
32.307,34.26
32.365,34.183
32.455,34.107
32.581,34.032
32.751,33.959
32.967,33.886
33.234,33.815
33.552,33.745
33.918,33.677
34.326,33.611
34.769,33.547
35.236,33.486
35.716,33.428
36.2,33.373
36.676,33.323
37.131,33.277
37.557,33.235
37.943,33.197
38.283,33.16
38.573,33.127
38.81,33.096
38.995,33.069
39.129,33.045
39.213,33.026
39.254,33.012
39.255,33.002
39.223,32.997
39.164,32.994
39.082,32.993
38.984,32.992
38.875,32.992
38.761,32.992
38.645,32.992
38.529,32.993
38.415,32.994
38.305,32.995
38.198,32.996
38.095,32.998
37.996,33
37.899,33.001
37.803,33.003
37.705,33.004
37.605,33.005
37.503,33.006
37.397,33.008
37.288,33.011
37.174,33.015
37.056,33.018
36.933,33.018
36.803,33.017
36.667,33.013
36.525,33.004
36.378,32.993
36.228,32.98
36.076,32.968
35.929,32.958
35.787,32.95
35.654,32.946
35.526,32.944
35.404,32.944
35.284,32.945
35.167,32.945
35.05,32.944
34.936,32.94
34.824,32.932
34.716,32.921
34.61,32.908
34.509,32.892
34.413,32.874
34.324,32.855
34.242,32.834
34.169,32.812
34.105,32.789
34.052,32.767
34.008,32.746
33.974,32.727
33.95,32.714
33.935,32.707
33.931,32.71
33.936,32.728
33.948,32.764
33.966,32.824
33.989,32.914
34.016,33.038
34.046,33.202
34.079,33.41
34.113,33.664
34.147,33.966
34.179,34.313
34.21,34.701
34.237,35.124
34.262,35.572
34.283,36.036
34.3,36.505
34.311,36.966
34.316,37.409
34.315,37.826
34.305,38.207
34.288,38.549
34.263,38.847
34.229,39.096
34.187,39.296
34.136,39.446
34.076,39.549
34.009,39.608
33.936,39.627
33.86,39.611
33.781,39.565
33.702,39.496
33.623,39.407
33.545,39.303
33.47,39.189
33.398,39.067
33.33,38.939
33.266,38.808
33.207,38.673
33.153,38.536
33.102,38.396
33.054,38.254
33.008,38.111
32.965,37.967
32.924,37.825
32.884,37.685
32.845,37.548
32.806,37.416
32.768,37.29
32.73,37.171
32.693,37.06
32.656,36.956
32.619,36.861
32.582,36.772
32.545,36.69
32.508,36.612
32.472,36.538
32.438,36.467
32.411,36.397
32.392,36.328
32.386,36.258
32.396,36.187
32.428,36.115
32.487,36.039
32.58,35.959
32.714,35.875
32.896,35.787
33.129,35.695
33.416,35.601
33.758,35.505
34.151,35.409
34.59,35.314
35.065,35.222
35.566,35.134
36.079,35.054
36.592,34.984
37.092,34.925
37.568,34.88
38.009,34.848
38.407,34.83
38.756,34.826
39.049,34.832
39.287,34.849
39.47,34.873
39.6,34.903
39.678,34.939
39.711,34.978
39.703,35.021
39.662,35.065
39.593,35.11
39.505,35.155
39.401,35.199
39.287,35.239
39.168,35.276
39.045,35.309
38.923,35.336
38.804,35.356
38.689,35.371
38.578,35.377
38.471,35.376
38.368,35.368
38.269,35.352
38.173,35.332
38.078,35.307
37.983,35.278
37.886,35.245
37.787,35.207
37.687,35.164
37.584,35.114
37.479,35.057
37.37,34.994
37.258,34.923
37.142,34.846
37.023,34.764
36.899,34.679
36.772,34.591
36.641,34.5
36.508,34.409
36.372,34.317
36.234,34.226
36.095,34.137
35.955,34.051
35.815,33.969
35.675,33.892
35.536,33.82
35.4,33.754
35.268,33.693
35.142,33.637
35.022,33.586
34.91,33.538
34.806,33.492
34.71,33.448
34.623,33.405
34.546,33.365
34.48,33.329
34.425,33.299
34.381,33.276
34.348,33.256
34.324,33.238
34.307,33.219
34.298,33.2
34.294,33.178
34.296,33.154
34.303,33.125
34.314,33.094
34.33,33.06
34.35,33.027
34.374,32.996
34.402,32.969
34.432,32.947
34.464,32.931
34.496,32.919
34.526,32.912
34.551,32.911
34.57,32.915
34.583,32.924
34.59,32.936
34.589,32.952
34.58,32.971
34.562,32.991
34.536,33.013
34.504,33.034
34.467,33.056
34.424,33.076
34.373,33.093
34.316,33.108
34.253,33.119
34.186,33.126
34.115,33.131
34.042,33.133
33.967,33.134
33.893,33.135
33.821,33.136
33.752,33.136
33.687,33.137
33.625,33.137
33.566,33.136
33.509,33.135
33.453,33.132
33.397,33.127
33.34,33.119
33.283,33.109
33.226,33.097
33.17,33.081
33.116,33.063
33.065,33.044
33.015,33.025
32.968,33.006
32.923,32.988
32.879,32.972
32.836,32.955
32.793,32.937
32.752,32.919
32.714,32.901
32.68,32.886
32.653,32.877
32.634,32.879
32.628,32.895
32.639,32.931
32.674,32.988
32.738,33.072
32.839,33.185
32.982,33.332
33.172,33.515
33.416,33.739
33.713,34.005
34.063,34.314
34.461,34.664
34.9,35.05
35.372,35.467
35.866,35.905
36.37,36.356
36.871,36.808
37.357,37.252
37.817,37.677
38.241,38.074
38.622,38.435
38.953,38.755
39.234,39.03
39.461,39.259
39.635,39.439
39.759,39.573
39.834,39.66
39.868,39.705
39.865,39.711
39.829,39.684
39.766,39.629
39.682,39.55
39.581,39.454
39.47,39.342
39.354,39.22
39.236,39.091
39.116,38.956
38.997,38.817
38.881,38.676
38.768,38.532
38.661,38.387
38.56,38.239
38.463,38.09
38.371,37.941
38.282,37.792
38.196,37.645
38.112,37.501
38.029,37.363
37.945,37.232
37.86,37.107
37.773,36.988
37.682,36.875
37.589,36.767
37.491,36.662
37.387,36.562
37.276,36.465
37.159,36.372
37.036,36.283
36.907,36.198
36.774,36.116
36.637,36.038
36.497,35.963
36.356,35.892
36.214,35.823
36.073,35.756
35.934,35.688
35.798,35.62
35.668,35.549
35.543,35.476
35.423,35.401
35.309,35.325
35.201,35.251
35.1,35.179
35.008,35.112
34.924,35.051
34.848,34.999
34.78,34.956
34.72,34.923
34.67,34.9
34.629,34.888
34.598,34.886
34.576,34.892
34.562,34.907
34.554,34.927
34.553,34.953
34.557,34.983
34.566,35.017
34.578,35.054
34.593,35.092
34.609,35.131
34.624,35.168
34.638,35.203
34.649,35.235
34.658,35.26
34.665,35.278
34.669,35.288
34.67,35.29
34.666,35.285
34.658,35.272
34.645,35.254
34.626,35.232
34.601,35.205
34.571,35.174
34.534,35.141
34.492,35.104
34.444,35.065
34.392,35.023
34.337,34.978
34.28,34.928
34.22,34.874
34.157,34.815
34.093,34.752
34.027,34.684
33.961,34.613
33.896,34.54
33.833,34.467
33.771,34.394
33.712,34.322
33.654,34.251
33.598,34.181
33.544,34.113
33.492,34.048
33.441,33.985
33.393,33.926
33.347,33.871
33.301,33.82
33.255,33.774
33.209,33.731
33.164,33.692
33.118,33.656
33.073,33.623
33.026,33.593
32.978,33.564
32.93,33.537
32.882,33.509
32.835,33.48
32.792,33.45
32.753,33.419
32.72,33.387
32.694,33.355
32.677,33.324
32.675,33.295
32.692,33.268
32.736,33.245
32.814,33.225
32.933,33.209
33.097,33.196
33.312,33.188
33.579,33.185
33.901,33.187
34.274,33.193
34.694,33.203
35.152,33.215
35.638,33.229
36.14,33.245
36.646,33.26
37.144,33.275
37.624,33.288
38.073,33.3
38.482,33.309
38.844,33.314
39.155,33.318
39.413,33.319
39.615,33.318
39.764,33.316
39.86,33.312
39.91,33.309
39.918,33.306
39.891,33.305
39.836,33.303
39.759,33.304
39.664,33.305
39.557,33.308
39.442,33.31
39.324,33.312
39.206,33.312
39.09,33.312
38.979,33.311
38.874,33.308
38.775,33.304
38.684,33.298
38.599,33.291
38.519,33.281
38.442,33.268
38.367,33.253
38.294,33.236
38.222,33.216
38.148,33.193
38.073,33.169
37.995,33.143
37.913,33.117
37.828,33.09
37.738,33.064
37.644,33.04
37.544,33.019
37.436,33.002
37.319,32.992
37.195,32.994
37.064,33.009
36.926,33.043
36.784,33.098
36.638,33.179
36.49,33.291
36.341,33.439
36.193,33.628
36.047,33.862
35.906,34.143
35.771,34.47
35.642,34.84
35.52,35.247
35.405,35.683
35.299,36.138
35.201,36.601
35.111,37.063
35.03,37.512
34.958,37.937
34.895,38.329
34.84,38.682
34.795,38.988
34.758,39.245
34.729,39.452
34.708,39.609
34.693,39.718
34.683,39.78
34.677,39.8
34.675,39.781
34.676,39.729
34.68,39.648
34.686,39.545
34.693,39.422
34.701,39.287
34.708,39.142
34.714,38.991
34.718,38.839
34.721,38.686
34.721,38.534
34.718,38.386
34.711,38.242
34.702,38.102
34.688,37.967
34.671,37.837
34.649,37.711
34.621,37.589
34.587,37.472
34.547,37.359
34.5,37.248
34.449,37.139
34.392,37.033
34.33,36.93
34.263,36.828
34.192,36.728
34.118,36.629
34.04,36.531
33.96,36.434
33.881,36.338
33.802,36.244
33.725,36.15
33.65,36.058
33.578,35.968
33.507,35.878
33.439,35.79
33.374,35.701
33.312,35.612
33.254,35.524
33.199,35.436
33.147,35.35
33.098,35.267
33.051,35.189
33.007,35.117
32.964,35.05
32.921,34.992
32.878,34.941
32.832,34.899
32.785,34.866
32.735,34.843
32.684,34.831
32.633,34.828
32.581,34.835
32.533,34.849
32.488,34.871
32.45,34.897
32.423,34.929
32.41,34.964
32.419,35.002
32.454,35.043
32.523,35.084
32.633,35.125
32.79,35.164
32.998,35.202
33.26,35.236
33.577,35.265
33.946,35.291
34.361,35.31
34.814,35.322
35.297,35.327
35.799,35.325
36.307,35.315
36.808,35.3
37.29,35.278
37.742,35.249
38.153,35.214
38.517,35.173
38.83,35.125
39.088,35.073
39.291,35.015
39.441,34.952
39.542,34.885
39.598,34.814
39.618,34.739
39.606,34.662
39.568,34.583
39.509,34.504
39.435,34.425
39.349,34.348
39.255,34.274
39.156,34.202
39.054,34.134
38.95,34.069
38.845,34.006
38.741,33.946
38.638,33.887
38.536,33.83
38.434,33.775
38.333,33.721
38.232,33.67
38.131,33.622
38.03,33.577
37.929,33.535
37.827,33.497
37.724,33.46
37.619,33.426
37.512,33.394
37.403,33.363
37.292,33.335
37.179,33.309
37.061,33.286
36.94,33.266
36.816,33.247
36.689,33.231
36.559,33.215
36.427,33.2
36.292,33.187
36.155,33.176
36.017,33.168
35.88,33.163
35.744,33.161
35.609,33.16
35.476,33.162
35.345,33.166
35.217,33.17
35.092,33.175
34.972,33.18
34.859,33.186
34.755,33.192
34.661,33.198
34.577,33.204
34.502,33.208
34.438,33.212
34.385,33.215
34.343,33.218
34.313,33.219
34.292,33.221
34.279,33.223
34.273,33.226
34.272,33.23
34.276,33.233
34.285,33.236
34.296,33.238
34.309,33.238
34.324,33.236
34.339,33.232
34.354,33.226
34.37,33.219
34.386,33.21
34.403,33.2
34.419,33.188
34.435,33.174
34.451,33.16
34.464,33.145
34.474,33.131
34.481,33.118
34.483,33.105
34.478,33.093
34.466,33.082
34.445,33.071
34.415,33.063
34.376,33.059
34.33,33.061
34.277,33.07
34.218,33.09
34.153,33.124
34.084,33.174
34.011,33.245
33.936,33.341
33.86,33.467
33.784,33.629
33.709,33.829
33.638,34.07
33.569,34.354
33.503,34.679
33.441,35.043
33.381,35.439
33.325,35.86
33.272,36.298
33.22,36.741
33.169,37.18
33.119,37.603
33.07,38.001
33.022,38.366
32.975,38.691
32.929,38.972
32.882,39.205
32.834,39.39
32.786,39.526
32.737,39.613
32.688,39.655
32.641,39.655
32.596,39.617
32.557,39.547
32.524,39.449
32.502,39.33
32.496,39.194
32.51,39.045
32.553,38.887
32.632,38.724
32.753,38.559
32.922,38.395
33.143,38.233
33.417,38.075
33.744,37.921
34.119,37.771
34.537,37.627
34.987,37.489
35.46,37.359
35.945,37.237
36.431,37.123
36.904,37.015
37.354,36.913
37.77,36.817
38.144,36.727
38.472,36.642
38.749,36.561
38.974,36.484
39.147,36.41
39.271,36.338
39.347,36.267
39.38,36.197
39.376,36.127
39.34,36.057
39.277,35.985
39.193,35.912
39.093,35.836
38.981,35.758
38.861,35.678
38.738,35.596
38.615,35.515
38.493,35.434
38.373,35.356
38.257,35.281
38.145,35.208
38.038,35.139
37.935,35.074
37.835,35.015
37.738,34.963
37.644,34.919
37.553,34.882
37.463,34.853
37.372,34.833
37.279,34.824
37.183,34.827
37.081,34.843
36.974,34.872
36.86,34.912
36.74,34.961
36.618,35.017
36.497,35.077
36.379,35.139
36.264,35.2
36.149,35.259
36.033,35.311
35.911,35.356
35.783,35.392
35.648,35.419
35.507,35.435
35.363,35.443
35.217,35.441
35.071,35.431
34.931,35.414
34.798,35.389
34.675,35.359
34.565,35.324
34.469,35.287
34.389,35.247
34.326,35.206
34.278,35.163
34.245,35.118
34.224,35.071
34.215,35.022
34.215,34.972
34.223,34.921
34.239,34.869
34.261,34.816
34.286,34.761
34.314,34.704
34.343,34.645
34.373,34.583
34.402,34.518
34.43,34.452
34.456,34.384
34.479,34.317
34.499,34.249
34.515,34.184
34.528,34.121
34.537,34.061
34.541,34.005
34.541,33.953
34.536,33.907
34.526,33.865
34.51,33.828
34.488,33.796
34.461,33.767
34.427,33.741
34.388,33.717
34.344,33.694
34.293,33.671
34.238,33.647
34.178,33.623
34.113,33.598
34.045,33.572
33.973,33.546
33.9,33.519
33.825,33.494
33.749,33.47
33.673,33.449
33.597,33.431
33.522,33.416
33.45,33.405
33.38,33.397
33.314,33.392
33.25,33.389
33.19,33.387
33.134,33.384
33.083,33.381
33.036,33.378
32.992,33.374
32.951,33.372
32.912,33.372
32.874,33.377
32.838,33.385
32.801,33.397
32.766,33.411
32.734,33.427
32.706,33.444
32.684,33.461
32.671,33.477
32.67,33.49
32.687,33.501
32.727,33.508
32.798,33.512
32.905,33.513
33.054,33.511
33.251,33.507
33.499,33.501
33.8,33.495
34.151,33.488
34.547,33.48
34.98,33.471
35.442,33.461
35.92,33.45
36.404,33.439
36.882,33.429
37.343,33.424
37.776,33.425
38.173,33.432
38.527,33.448
38.835,33.476
39.094,33.516
39.303,33.573
39.462,33.652
39.574,33.757
39.642,33.894
39.67,34.067
39.664,34.28
39.627,34.534
39.566,34.828
39.486,35.159
39.392,35.522
39.287,35.909
39.177,36.312
39.063,36.721
38.95,37.125
38.837,37.514
38.726,37.878
38.619,38.211
38.515,38.505
38.414,38.757
38.316,38.964
38.22,39.126
38.126,39.245
38.036,39.323
37.948,39.363
37.862,39.371
37.778,39.35
37.694,39.303
37.609,39.235
37.523,39.15
37.433,39.049
37.339,38.936
37.239,38.813
37.132,38.681
37.019,38.543
36.899,38.398
36.773,38.249
36.641,38.094
36.504,37.935
36.361,37.773
36.215,37.609
36.067,37.446
35.918,37.284
35.772,37.125
35.629,36.972
35.492,36.824
35.362,36.684
35.241,36.551
35.13,36.427
35.031,36.311
34.944,36.203
34.87,36.103
34.808,36.009
34.76,35.922
34.723,35.84
34.698,35.762
34.682,35.69
34.674,35.623
34.672,35.56
34.676,35.5
34.683,35.444
34.695,35.389
34.708,35.335
34.722,35.28
34.735,35.226
34.746,35.171
34.756,35.116
34.764,35.062
34.772,35.008
34.778,34.958
34.783,34.91
34.784,34.867
34.783,34.83
34.778,34.801
34.768,34.778
34.755,34.764
34.738,34.756
34.718,34.754
34.695,34.757
34.669,34.764
34.64,34.776
34.608,34.793
34.573,34.814
34.535,34.839
34.493,34.87
34.448,34.905
34.398,34.943
34.343,34.983
34.282,35.024
34.218,35.063
34.151,35.098
34.081,35.129
34.009,35.153
33.936,35.168
33.86,35.174
33.781,35.169
33.702,35.155
33.624,35.132
33.546,35.1
33.471,35.061
33.399,35.017
33.328,34.969
33.261,34.917
33.196,34.862
33.134,34.805
33.078,34.746
33.026,34.685
32.982,34.624
32.946,34.564
32.921,34.505
32.91,34.45
32.916,34.397
32.944,34.348
32.998,34.302
33.081,34.259
33.2,34.218
33.358,34.178
33.558,34.138
33.804,34.097
34.094,34.052
34.426,34.004
34.795,33.953
35.194,33.901
35.616,33.848
36.049,33.796
36.486,33.748
36.916,33.703
37.33,33.663
37.721,33.628
38.082,33.598
38.41,33.573
38.699,33.553
38.949,33.537
39.158,33.524
39.326,33.515
39.456,33.509
39.549,33.507
39.609,33.508
39.637,33.512
39.637,33.518
39.613,33.526
39.568,33.533
39.507,33.538
39.433,33.541
39.349,33.539
39.257,33.532
39.161,33.521
39.062,33.505
38.963,33.487
38.865,33.467
38.767,33.445
38.672,33.422
38.578,33.397
38.487,33.371
38.398,33.346
38.312,33.324
38.228,33.305
38.145,33.288
38.063,33.273
37.98,33.262
37.898,33.254
37.814,33.248
37.729,33.246
37.642,33.243
37.552,33.24
37.459,33.235
37.364,33.228
37.265,33.216
37.161,33.2
37.051,33.18
36.935,33.155
36.814,33.127
36.69,33.099
36.562,33.073
36.432,33.054
36.301,33.045
36.169,33.051
36.039,33.078
35.912,33.131
35.789,33.216
35.673,33.335
35.563,33.494
35.461,33.693
35.367,33.935
35.282,34.219
35.207,34.545
35.141,34.909
35.085,35.306
35.04,35.73
35.005,36.172
34.98,36.623
34.965,37.073
34.958,37.514
34.96,37.936
34.968,38.331
34.982,38.69
35,39.008
35.022,39.279
35.048,39.502
35.075,39.673
35.104,39.794
35.132,39.864
35.158,39.888
35.18,39.868
35.197,39.809
35.208,39.717
35.213,39.598
35.211,39.456
35.2,39.3
35.18,39.134
35.151,38.962
35.112,38.789
35.064,38.619
35.008,38.456
34.945,38.301
34.876,38.156
34.804,38.02
34.729,37.894
34.652,37.775
34.576,37.664
34.501,37.558
34.429,37.458
34.359,37.36
34.292,37.265
34.229,37.171
34.169,37.079
34.111,36.99
34.056,36.903
34.001,36.819
33.948,36.738
33.894,36.659
33.84,36.582
33.783,36.504
33.725,36.425
33.664,36.343
33.601,36.258
33.535,36.169
33.469,36.076
33.403,35.98
33.339,35.881
33.28,35.78
33.229,35.678
33.189,35.579
33.167,35.482
33.167,35.391
33.195,35.307
33.257,35.23
33.358,35.161
33.501,35.099
33.691,35.044
33.928,34.994
34.21,34.951
34.534,34.913
34.895,34.883
35.287,34.859
35.7,34.844
36.126,34.838
36.552,34.839
36.97,34.848
37.369,34.864
37.741,34.887
38.079,34.916
38.38,34.95
38.638,34.987
38.853,35.027
39.023,35.067
39.149,35.107
39.233,35.147
39.279,35.186
39.291,35.224
39.274,35.26
39.235,35.294
39.178,35.326
39.108,35.353
39.03,35.374
38.946,35.388
38.86,35.393
38.775,35.387
38.692,35.369
38.613,35.338
38.538,35.294
38.467,35.236
38.399,35.167
38.335,35.087
38.273,35
38.214,34.908
38.155,34.814
38.097,34.721
38.039,34.63
37.979,34.543
37.918,34.46
37.852,34.382
37.781,34.309
37.704,34.24
37.619,34.176
37.527,34.116
37.428,34.061
37.32,34.012
37.205,33.966
37.082,33.922
36.953,33.881
36.817,33.841
36.677,33.803
36.534,33.765
36.388,33.729
36.242,33.694
36.097,33.66
35.955,33.628
35.817,33.599
35.685,33.572
35.56,33.548
35.443,33.527
35.334,33.511
35.233,33.5
35.14,33.495
35.058,33.494
34.985,33.496
34.922,33.501
34.868,33.506
34.821,33.51
34.781,33.513
34.748,33.515
34.722,33.515
34.701,33.514
34.686,33.512
34.676,33.51
34.67,33.505
34.669,33.5
34.672,33.493
34.681,33.484
34.693,33.474
34.708,33.462
34.725,33.451
34.744,33.44
34.762,33.43
34.78,33.422
34.797,33.416
34.811,33.413
34.822,33.412
34.829,33.412
34.831,33.413
34.828,33.414
34.818,33.415
34.803,33.413
34.781,33.409
34.752,33.402
34.715,33.394
34.669,33.384
34.617,33.373
34.559,33.362
34.497,33.352
34.429,33.346
34.356,33.347
34.279,33.358
34.198,33.382
34.116,33.424
34.033,33.488
33.952,33.58
33.872,33.705
33.793,33.87
33.715,34.076
33.64,34.325
33.567,34.619
33.497,34.956
33.43,35.331
33.365,35.739
33.303,36.17
33.242,36.615
33.182,37.064
33.126,37.507
33.075,37.933
33.029,38.334
32.99,38.703
32.958,39.032
32.936,39.319
32.925,39.559
32.929,39.751
32.951,39.895
32.997,39.993
33.071,40.046
33.177,40.058
33.322,40.03
33.508,39.969
33.736,39.877
34.008,39.76
34.321,39.623
34.67,39.471
35.049,39.308
35.449,39.138
35.862,38.963
36.279,38.786
36.691,38.61
37.088,38.439
37.463,38.274
37.809,38.119
38.12,37.974
38.393,37.838
38.626,37.712
38.818,37.596
38.97,37.49
39.084,37.394
39.163,37.307
39.208,37.23
39.222,37.16
39.209,37.097
39.172,37.04
39.115,36.989
39.041,36.94
38.95,36.893
38.842,36.845
38.719,36.794
38.585,36.739
38.446,36.679
38.306,36.613
38.171,36.539
38.043,36.458
37.925,36.371
37.82,36.276
37.728,36.175
37.649,36.069
37.583,35.959
37.527,35.846
37.479,35.733
37.436,35.622
37.396,35.515
37.356,35.414
37.316,35.321
37.271,35.239
37.222,35.167
37.167,35.107
37.104,35.06
37.033,35.026
36.953,35.006
36.863,34.999
36.764,35.003
36.655,35.019
36.538,35.046
36.413,35.081
36.281,35.124
36.143,35.173
36.002,35.226
35.86,35.28
35.719,35.333
35.581,35.383
35.447,35.427
35.319,35.465
35.199,35.494
35.089,35.515
34.989,35.525
34.901,35.524
34.826,35.512
34.765,35.49
34.718,35.458
34.686,35.417
34.667,35.37
34.659,35.317
34.66,35.261
34.67,35.202
34.687,35.141
34.709,35.079
34.735,35.017
34.763,34.956
34.79,34.896
34.818,34.837
34.845,34.779
34.869,34.722
34.891,34.665
34.907,34.608
34.918,34.55
34.922,34.491
34.919,34.43
34.909,34.367
34.892,34.303
34.868,34.237
34.839,34.169
34.804,34.099
34.764,34.028
34.717,33.958
34.665,33.89
34.607,33.825
34.545,33.765
34.481,33.71
34.414,33.661
34.346,33.62
34.279,33.585
34.213,33.558
34.148,33.538
34.085,33.525
34.022,33.519
33.961,33.519
33.9,33.523
33.84,33.532
33.781,33.542
33.721,33.553
33.659,33.564
33.594,33.575
33.527,33.584
33.456,33.592
33.383,33.598
33.31,33.601
33.236,33.601
33.166,33.598
33.1,33.592
33.038,33.583
32.984,33.571
32.939,33.559
32.907,33.548
32.891,33.536
32.893,33.526
32.918,33.517
32.97,33.507
33.053,33.498
33.174,33.49
33.335,33.482
33.539,33.475
33.785,33.469
34.072,33.461
34.396,33.453
34.75,33.443
35.128,33.43
35.522,33.415
35.923,33.398
36.321,33.379
36.708,33.359
37.076,33.339
37.419,33.319
37.731,33.3
38.008,33.283
38.247,33.271
38.447,33.265
38.608,33.269
38.732,33.286
38.821,33.319
38.876,33.372
38.901,33.449
38.901,33.554
38.878,33.69
38.837,33.861
38.782,34.071
38.714,34.32
38.637,34.609
38.554,34.936
38.468,35.296
38.38,35.685
38.292,36.095
38.204,36.518
38.117,36.944
38.029,37.365
37.942,37.769
37.855,38.15
37.77,38.499
37.686,38.811
37.603,39.082
37.52,39.31
37.437,39.494
37.354,39.632
37.271,39.728
37.185,39.783
37.098,39.8
37.008,39.785
36.916,39.74
36.821,39.67
36.722,39.578
36.618,39.469
36.507,39.345
36.391,39.212
36.269,39.071
36.141,38.927
36.01,38.781
35.876,38.635
35.741,38.491
35.605,38.351
35.472,38.216
35.343,38.086
35.226,37.964
35.121,37.851
35.03,37.746
34.95,37.649
34.88,37.559
34.816,37.477
34.757,37.399
34.702,37.326
34.652,37.258
34.604,37.193
34.56,37.13
34.52,37.069
34.484,37.01
34.453,36.951
34.429,36.89
34.413,36.828
34.406,36.763
34.408,36.693
34.418,36.618
34.436,36.536
34.462,36.448
34.494,36.353
34.531,36.252
34.572,36.149
34.615,36.043
34.656,35.937
34.693,35.833
34.724,35.732
34.748,35.637
34.764,35.549
34.77,35.469
34.767,35.399
34.755,35.339
34.733,35.289
34.702,35.249
34.662,35.219
34.614,35.198
34.559,35.186
34.498,35.181
34.431,35.182
34.36,35.188
34.288,35.198
34.214,35.21
34.141,35.223
34.069,35.237
33.998,35.25
33.927,35.263
33.858,35.275
33.792,35.287
33.728,35.298
33.666,35.309
33.607,35.319
33.549,35.331
33.492,35.348
33.434,35.371
33.377,35.396
33.319,35.421
33.262,35.441
33.206,35.453
33.15,35.454
33.096,35.443
33.045,35.418
32.999,35.38
32.963,35.331
32.942,35.27
32.943,35.199
32.972,35.119
33.035,35.033
33.14,34.942
33.289,34.849
33.486,34.755
33.733,34.662
34.026,34.571
34.361,34.483
34.732,34.4
35.13,34.323
35.545,34.252
35.968,34.187
36.388,34.128
36.796,34.075
37.181,34.025
37.539,33.978
37.862,33.935
38.146,33.893
38.389,33.853
38.589,33.814
38.746,33.775
38.861,33.738
38.937,33.702
38.975,33.669
38.982,33.637
38.961,33.608
38.916,33.581
38.852,33.556
38.774,33.534
38.685,33.515
38.591,33.5
38.494,33.49
38.397,33.483
38.303,33.48
38.211,33.479
38.125,33.481
38.043,33.484
37.966,33.488
37.893,33.492
37.822,33.497
37.754,33.5
37.688,33.501
37.624,33.498
37.561,33.492
37.498,33.481
37.436,33.468
37.372,33.453
37.307,33.437
37.239,33.422
37.167,33.408
37.09,33.397
37.008,33.388
36.922,33.382
36.831,33.378
36.736,33.378
36.637,33.38
36.533,33.383
36.425,33.386
36.311,33.388
36.193,33.388
36.071,33.385
35.947,33.379
35.822,33.37
35.696,33.359
35.571,33.346
35.449,33.334
35.332,33.323
35.223,33.317
35.122,33.317
35.032,33.326
34.952,33.348
34.883,33.387
34.827,33.447
34.782,33.535
34.749,33.655
34.726,33.81
34.712,34.006
34.705,34.243
34.704,34.523
34.707,34.844
34.713,35.201
34.721,35.59
34.731,36.002
34.742,36.426
34.753,36.853
34.764,37.274
34.774,37.679
34.784,38.06
34.791,38.41
34.797,38.723
34.801,38.995
34.802,39.225
34.8,39.411
34.795,39.554
34.787,39.656
34.775,39.717
34.759,39.74
34.738,39.727
34.711,39.681
34.676,39.606
34.632,39.504
34.58,39.38
34.519,39.239
34.45,39.084
34.374,38.918
34.293,38.746
34.208,38.571
34.119,38.397
34.029,38.226
33.939,38.062
33.853,37.906
33.772,37.761
33.696,37.627
33.626,37.505
33.561,37.396
33.501,37.3
33.445,37.216
33.394,37.143
33.345,37.08
33.299,37.025
33.253,36.977
33.21,36.932
33.168,36.889
33.128,36.845
33.093,36.798
33.062,36.745
33.039,36.686
33.028,36.619
33.032,36.545
33.056,36.465
33.107,36.378
33.187,36.286
33.302,36.19
33.455,36.089
33.648,35.986
33.878,35.881
34.146,35.776
34.448,35.672
34.779,35.571
35.133,35.476
35.501,35.386
35.877,35.304
36.252,35.232
36.616,35.172
36.962,35.123
37.283,35.089
37.575,35.068
37.834,35.06
38.059,35.064
38.248,35.078
38.402,35.1
38.521,35.128
38.608,35.161
38.666,35.197
38.697,35.237
38.705,35.277
38.694,35.316
38.667,35.353
38.628,35.388
38.579,35.42
38.523,35.448
38.461,35.473
38.395,35.493
38.325,35.509
38.252,35.519
38.178,35.522
38.104,35.518
38.028,35.504
37.953,35.482
37.877,35.45
37.803,35.408
37.729,35.358
37.656,35.3
37.586,35.236
37.517,35.167
37.45,35.095
37.385,35.023
37.322,34.95
37.261,34.878
37.2,34.808
37.139,34.739
37.075,34.672
37.007,34.605
36.933,34.539
36.853,34.473
36.767,34.407
36.673,34.342
36.574,34.279
36.469,34.216
36.359,34.157
36.243,34.1
36.122,34.047
35.998,33.999
35.871,33.955
35.743,33.915
35.614,33.879
35.485,33.844
35.36,33.809
35.24,33.774
35.127,33.738
35.022,33.703
34.927,33.669
34.842,33.638
34.768,33.611
34.706,33.588
34.655,33.57
34.616,33.556
34.587,33.546
34.567,33.538
34.556,33.533
34.553,33.53
34.558,33.53
34.569,33.532
34.585,33.537
34.604,33.544
34.625,33.552
34.647,33.561
34.668,33.57
34.687,33.579
34.704,33.586
34.717,33.591
34.724,33.593
34.722,33.591
34.712,33.585
34.692,33.575
34.664,33.56
34.63,33.543
34.59,33.524
34.544,33.504
34.494,33.484
34.44,33.463
34.385,33.444
34.329,33.425
34.274,33.408
34.22,33.392
34.167,33.377
34.117,33.363
34.068,33.351
34.02,33.339
33.972,33.328
33.924,33.318
33.874,33.309
33.822,33.301
33.767,33.293
33.709,33.284
33.648,33.275
33.584,33.265
33.517,33.252
33.449,33.236
33.377,33.218
33.303,33.197
33.227,33.175
33.149,33.155
33.073,33.141
32.999,33.136
32.928,33.144
32.864,33.171
32.807,33.221
32.761,33.302
32.73,33.421
32.718,33.581
32.727,33.784
32.764,34.027
32.834,34.31
32.939,34.631
33.085,34.985
33.271,35.367
33.5,35.77
33.77,36.188
34.076,36.612
34.415,37.033
34.778,37.441
35.158,37.83
35.546,38.192
35.934,38.519
36.314,38.807
36.679,39.053
37.021,39.254
37.335,39.409
37.617,39.519
37.864,39.585
38.074,39.61
38.248,39.598
38.386,39.551
38.49,39.475
38.562,39.372
38.604,39.25
38.621,39.114
38.616,38.969
38.593,38.821
38.558,38.673
38.522,38.53
38.488,38.393
38.458,38.266
38.431,38.148
38.403,38.041
38.372,37.944
38.335,37.856
38.29,37.776
38.235,37.702
38.169,37.632
38.091,37.565
38.005,37.498
37.91,37.43
37.811,37.359
37.708,37.286
37.602,37.211
37.495,37.133
37.388,37.053
37.282,36.974
37.178,36.896
37.077,36.818
36.979,36.74
36.886,36.663
36.796,36.586
36.707,36.509
36.62,36.431
36.533,36.351
36.446,36.27
36.357,36.185
36.267,36.098
36.174,36.009
36.078,35.918
35.98,35.828
35.879,35.742
35.776,35.66
35.672,35.584
35.568,35.516
35.467,35.454
35.371,35.399
35.28,35.351
35.194,35.31
35.112,35.276
35.035,35.248
34.964,35.225
34.898,35.209
34.839,35.197
34.787,35.19
34.741,35.188
34.703,35.19
34.672,35.198
34.649,35.211
34.632,35.227
34.623,35.247
34.619,35.268
34.622,35.289
34.63,35.309
34.641,35.326
34.656,35.34
34.674,35.349
34.694,35.352
34.714,35.349
34.734,35.339
34.752,35.321
34.767,35.299
34.778,35.273
34.784,35.246
34.786,35.219
34.782,35.19
34.77,35.16
34.749,35.13
34.721,35.099
34.684,35.066
34.641,35.03
34.591,34.99
34.534,34.946
34.471,34.898
34.402,34.845
34.331,34.788
34.258,34.726
34.185,34.662
34.113,34.596
34.042,34.529
33.973,34.463
33.906,34.398
33.841,34.333
33.778,34.268
33.718,34.204
33.661,34.14
33.608,34.077
33.555,34.016
33.504,33.957
33.452,33.901
33.4,33.85
33.347,33.803
33.293,33.762
33.238,33.726
33.181,33.696
33.123,33.673
33.064,33.655
33.005,33.642
32.945,33.632
32.886,33.624
32.828,33.616
32.773,33.609
32.725,33.603
32.686,33.597
32.661,33.592
32.656,33.588
32.674,33.585
32.723,33.582
32.807,33.579
32.93,33.575
33.094,33.57
33.303,33.566
33.554,33.561
33.845,33.556
34.172,33.552
34.528,33.547
34.905,33.542
35.295,33.539
35.69,33.538
36.08,33.54
36.457,33.545
36.812,33.554
37.14,33.566
37.436,33.578
37.695,33.59
37.918,33.6
38.101,33.606
38.244,33.609
38.349,33.61
38.418,33.608
38.454,33.604
38.461,33.599
38.443,33.593
38.405,33.587
38.35,33.579
38.283,33.569
38.209,33.557
38.132,33.542
38.054,33.523
37.978,33.501
37.906,33.474
37.839,33.443
37.778,33.409
37.722,33.373
37.672,33.337
37.626,33.304
37.583,33.275
37.542,33.251
37.502,33.232
37.461,33.219
37.418,33.213
37.373,33.215
37.324,33.227
37.272,33.251
37.217,33.29
37.159,33.346
37.099,33.423
37.034,33.524
36.964,33.655
36.888,33.819
36.804,34.02
36.713,34.261
36.615,34.541
36.51,34.86
36.4,35.214
36.286,35.596
36.169,36
36.051,36.417
35.932,36.838
35.813,37.251
35.696,37.648
35.582,38.02
35.474,38.357
35.373,38.656
35.278,38.913
35.189,39.124
35.105,39.29
35.026,39.41
34.952,39.486
34.884,39.522
34.82,39.522
34.761,39.492
34.707,39.435
34.657,39.357
34.612,39.261
34.573,39.152
34.539,39.034
34.512,38.908
34.49,38.778
34.473,38.644
34.461,38.508
34.453,38.371
34.449,38.233
34.449,38.096
34.453,37.962
34.457,37.831
34.462,37.705
34.466,37.584
34.469,37.47
34.469,37.362
34.467,37.261
34.461,37.167
34.451,37.081
34.435,37.003
34.414,36.931
34.387,36.864
34.354,36.802
34.318,36.743
34.278,36.684
34.234,36.626
34.187,36.566
34.136,36.505
34.082,36.443
34.025,36.377
33.965,36.307
33.903,36.232
33.839,36.151
33.772,36.066
33.703,35.977
33.632,35.886
33.561,35.796
33.49,35.707
33.42,35.621
33.352,35.538
33.286,35.46
33.22,35.388
33.155,35.323
33.092,35.265
33.03,35.214
32.971,35.171
32.913,35.136
32.856,35.11
32.801,35.093
32.747,35.086
32.694,35.089
32.641,35.099
32.59,35.116
32.539,35.14
32.488,35.17
32.437,35.205
32.387,35.245
32.338,35.288
32.294,35.332
32.256,35.375
32.229,35.417
32.215,35.456
32.218,35.49
32.243,35.519
32.295,35.541
32.381,35.554
32.503,35.56
32.667,35.556
32.873,35.544
33.121,35.524
33.41,35.496
33.735,35.463
34.092,35.423
34.473,35.377
34.869,35.325
35.271,35.268
35.67,35.205
36.057,35.137
36.424,35.064
36.765,34.986
37.075,34.904
37.349,34.82
37.584,34.736
37.779,34.651
37.935,34.568
38.052,34.486
38.135,34.406
38.185,34.33
38.206,34.257
38.204,34.188
38.182,34.123
38.147,34.062
38.099,34.004
38.042,33.95
37.98,33.9
37.913,33.854
37.846,33.813
37.779,33.774
37.715,33.739
37.654,33.705
37.597,33.673
37.544,33.643
37.497,33.615
37.454,33.589
37.414,33.567
37.374,33.547
37.334,33.531
37.292,33.518
37.248,33.508
37.2,33.501
37.15,33.497
37.096,33.496
37.037,33.496
36.974,33.498
36.905,33.502
36.83,33.506
36.748,33.51
36.661,33.514
36.567,33.518
36.468,33.522
36.362,33.525
36.251,33.528
36.136,33.532
36.017,33.535
35.896,33.539
35.774,33.543
35.652,33.548
35.531,33.555
35.414,33.563
35.3,33.573
35.192,33.584
35.09,33.594
34.994,33.603
34.904,33.609
34.82,33.613
34.745,33.613
34.679,33.61
34.622,33.603
34.573,33.594
34.533,33.582
34.5,33.569
34.472,33.554
34.451,33.537
34.436,33.52
34.426,33.502
34.42,33.484
34.42,33.467
34.423,33.448
34.431,33.43
34.442,33.41
34.456,33.39
34.473,33.37
34.49,33.35
34.506,33.33
34.52,33.311
34.532,33.294
34.539,33.277
34.542,33.262
34.542,33.248
34.536,33.237
34.527,33.228
34.514,33.222
34.496,33.221
34.474,33.228
34.446,33.244
34.414,33.273
34.376,33.318
34.332,33.383
34.282,33.474
34.227,33.594
34.167,33.748
34.102,33.94
34.032,34.171
33.958,34.441
33.88,34.749
33.799,35.09
33.717,35.459
33.634,35.847
33.554,36.247
33.477,36.647
33.405,37.04
33.338,37.417
33.275,37.77
33.218,38.092
33.166,38.379
33.118,38.626
33.073,38.832
33.032,38.994
32.991,39.113
32.949,39.192
32.907,39.233
32.864,39.239
32.82,39.216
32.774,39.166
32.727,39.096
32.679,39.008
32.632,38.908
32.587,38.797
32.545,38.679
32.511,38.556
32.486,38.427
32.474,38.295
32.482,38.159
32.512,38.023
32.573,37.887
32.669,37.753
32.803,37.62
32.979,37.49
33.196,37.364
33.453,37.243
33.747,37.127
34.074,37.018
34.427,36.915
34.8,36.821
35.183,36.735
35.568,36.656
35.946,36.585
36.31,36.521
36.651,36.463
36.964,36.409
37.243,36.358
37.486,36.309
37.69,36.261
37.855,36.213
37.98,36.164
38.07,36.115
38.124,36.064
38.147,36.009
38.143,35.951
38.116,35.89
38.072,35.825
38.015,35.758
37.95,35.689
37.88,35.62
37.808,35.552
37.737,35.486
37.668,35.422
37.603,35.361
37.54,35.305
37.48,35.255
37.423,35.211
37.369,35.176
37.316,35.149
37.266,35.13
37.217,35.119
37.169,35.114
37.121,35.115
37.071,35.121
37.019,35.132
36.964,35.149
36.904,35.171
36.84,35.198
36.771,35.227
36.694,35.259
36.612,35.293
36.525,35.326
36.432,35.359
36.335,35.389
36.234,35.416
36.129,35.436
36.022,35.448
35.912,35.451
35.802,35.444
35.692,35.429
35.58,35.405
35.468,35.374
35.356,35.339
35.246,35.299
35.138,35.255
35.034,35.205
34.934,35.15
34.841,35.089
34.755,35.024
34.676,34.956
34.606,34.885
34.543,34.812
34.488,34.74
34.442,34.668
34.403,34.597
34.373,34.527
34.351,34.46
34.336,34.395
34.328,34.331
34.326,34.268
34.328,34.206
34.335,34.144
34.344,34.084
34.355,34.026
34.368,33.972
34.383,33.921
34.399,33.874
34.414,33.833
34.428,33.798
34.439,33.768
34.447,33.744
34.452,33.726
34.453,33.712
34.449,33.701
34.441,33.693
34.427,33.685
34.408,33.678
34.383,33.671
34.352,33.664
34.314,33.656
34.27,33.649
34.22,33.64
34.165,33.632
34.104,33.624
34.04,33.616
33.972,33.608
33.901,33.601
33.829,33.594
33.755,33.587
33.681,33.581
33.607,33.575
33.535,33.569
33.464,33.563
33.397,33.558
33.333,33.554
33.272,33.552
33.213,33.551
33.159,33.553
33.107,33.555
33.059,33.556
33.013,33.557
32.968,33.557
32.924,33.554
32.881,33.548
32.84,33.54
32.798,33.53
32.757,33.518
32.716,33.505
32.675,33.492
32.634,33.48
32.594,33.471
32.557,33.463
32.524,33.458
32.501,33.455
32.493,33.454
32.505,33.453
32.543,33.451
32.611,33.446
32.716,33.44
32.862,33.431
33.051,33.421
33.283,33.411
33.555,33.4
33.865,33.389
34.205,33.379
34.57,33.371
34.95,33.364
35.338,33.36
35.724,33.36
36.102,33.364
36.463,33.375
36.802,33.392
37.114,33.416
37.394,33.452
37.639,33.5
37.848,33.567
38.027,33.657
38.178,33.774
38.303,33.923
38.4,34.108
38.469,34.331
38.509,34.593
38.52,34.891
38.505,35.221
38.464,35.578
38.4,35.954
38.316,36.34
38.217,36.725
38.108,37.101
37.994,37.459
37.88,37.792
37.769,38.093
37.665,38.359
37.569,38.586
37.482,38.772
37.406,38.917
37.341,39.024
37.286,39.093
37.24,39.128
37.199,39.132
37.163,39.109
37.131,39.062
37.102,38.996
37.072,38.912
37.041,38.815
37.005,38.707
36.963,38.59
36.914,38.465
36.857,38.335
36.792,38.2
36.719,38.062
36.637,37.924
36.546,37.786
36.448,37.65
36.344,37.517
36.233,37.387
36.117,37.261
35.996,37.141
35.872,37.026
35.747,36.917
35.623,36.813
35.5,36.715
35.381,36.622
35.266,36.535
35.158,36.454
35.056,36.377
34.962,36.304
34.877,36.234
34.801,36.165
34.736,36.096
34.682,36.027
34.638,35.957
34.604,35.889
34.579,35.821
34.562,35.755
34.551,35.692
34.548,35.63
34.55,35.571
34.556,35.513
34.565,35.456
34.575,35.401
34.587,35.347
34.6,35.294
34.612,35.243
34.622,35.194
34.628,35.15
34.629,35.11
34.626,35.076
34.62,35.05
34.611,35.032
34.6,35.021
34.586,35.016
34.568,35.018
34.546,35.024
34.52,35.034
34.49,35.048
34.454,35.065
34.414,35.085
34.369,35.106
34.319,35.128
34.263,35.148
34.201,35.168
34.134,35.188
34.064,35.208
33.99,35.229
33.914,35.253
33.836,35.278
33.757,35.304
33.678,35.329
33.6,35.353
33.524,35.372
33.449,35.386
33.375,35.393
33.302,35.392
33.231,35.381
33.163,35.36
33.099,35.33
33.037,35.29
32.98,35.242
32.926,35.187
32.876,35.126
32.83,35.058
32.787,34.985
32.749,34.907
32.713,34.824
32.68,34.737
32.648,34.647
32.617,34.555
32.586,34.462
32.555,34.368
32.528,34.277
32.507,34.187
32.494,34.103
32.493,34.024
32.51,33.952
32.55,33.889
32.622,33.834
32.732,33.787
32.885,33.747
33.083,33.712
33.326,33.681
33.614,33.651
33.942,33.622
34.304,33.593
34.693,33.564
35.1,33.536
35.516,33.508
35.932,33.483
36.34,33.46
36.731,33.442
37.097,33.428
37.433,33.419
37.734,33.414
37.995,33.414
38.215,33.417
38.394,33.423
38.533,33.432
38.634,33.442
38.7,33.453
38.733,33.465
38.738,33.479
38.721,33.494
38.685,33.51
38.633,33.527
38.568,33.544
38.494,33.559
38.414,33.573
38.33,33.584
38.245,33.591
38.16,33.594
38.077,33.592
37.996,33.585
37.918,33.574
37.844,33.558
37.774,33.538
37.707,33.515
37.642,33.49
37.58,33.465
37.52,33.439
37.465,33.415
37.413,33.392
37.363,33.369
37.315,33.347
37.269,33.324
37.223,33.297
37.176,33.262
37.126,33.221
37.073,33.176
37.014,33.13
36.949,33.087
36.876,33.052
36.797,33.027
36.709,33.016
36.614,33.022
36.511,33.05
36.401,33.1
36.284,33.176
36.162,33.28
36.037,33.417
35.91,33.589
35.782,33.798
35.653,34.046
35.525,34.334
35.4,34.659
35.281,35.02
35.17,35.41
35.069,35.822
34.981,36.247
34.905,36.675
34.843,37.098
34.793,37.504
34.756,37.886
34.73,38.233
34.714,38.54
34.705,38.802
34.703,39.015
34.705,39.178
34.712,39.29
34.72,39.354
34.731,39.372
34.74,39.35
34.747,39.293
34.749,39.209
34.748,39.103
34.742,38.981
34.732,38.849
34.719,38.712
34.701,38.574
34.678,38.438
34.652,38.307
34.622,38.182
34.588,38.063
34.55,37.95
34.508,37.84
34.462,37.733
34.413,37.627
34.36,37.521
34.306,37.414
34.252,37.307
34.198,37.2
34.143,37.092
34.086,36.986
34.029,36.884
33.972,36.785
33.914,36.692
33.855,36.606
33.796,36.526
33.736,36.451
33.674,36.382
33.61,36.316
33.546,36.252
33.481,36.19
33.417,36.127
33.355,36.064
33.293,36
33.231,35.933
33.17,35.864
33.11,35.793
33.051,35.721
32.994,35.649
32.938,35.578
32.884,35.51
32.833,35.445
32.783,35.386
32.737,35.332
32.693,35.286
32.652,35.245
32.613,35.21
32.576,35.179
32.539,35.153
32.503,35.13
32.468,35.111
32.432,35.097
32.397,35.088
32.363,35.085
32.331,35.087
32.304,35.094
32.286,35.106
32.281,35.121
32.296,35.139
32.338,35.161
32.415,35.184
32.531,35.208
32.691,35.234
32.897,35.257
33.151,35.277
33.451,35.292
33.793,35.301
34.171,35.303
34.576,35.299
35,35.288
35.432,35.272
35.862,35.251
36.28,35.226
36.679,35.199
37.05,35.17
37.387,35.139
37.687,35.106
37.948,35.069
38.168,35.027
38.347,34.98
38.485,34.927
38.586,34.869
38.651,34.806
38.684,34.74
38.69,34.671
38.671,34.602
38.634,34.534
38.582,34.469
38.518,34.405
38.448,34.345
38.374,34.288
38.297,34.233
38.221,34.181
38.146,34.131
38.075,34.082
38.009,34.033
37.947,33.984
37.889,33.935
37.835,33.886
37.783,33.838
37.732,33.791
37.681,33.745
37.629,33.701
37.576,33.659
37.52,33.618
37.461,33.579
37.399,33.542
37.334,33.507
37.266,33.473
37.194,33.442
37.118,33.413
37.037,33.388
36.95,33.368
36.859,33.353
36.763,33.344
36.662,33.343
36.557,33.349
36.447,33.361
36.335,33.38
36.22,33.404
36.105,33.431
35.988,33.461
35.87,33.492
35.751,33.522
35.632,33.552
35.514,33.579
35.398,33.604
35.286,33.625
35.179,33.642
35.076,33.655
34.979,33.662
34.89,33.664
34.808,33.661
34.735,33.651
34.671,33.636
34.615,33.615
34.568,33.59
34.528,33.56
34.497,33.528
34.473,33.494
34.455,33.46
34.443,33.427
34.435,33.397
34.43,33.371
34.427,33.348
34.427,33.329
34.428,33.314
34.428,33.303
34.428,33.295
34.425,33.29
34.419,33.289
34.411,33.292
34.4,33.3
34.388,33.317
34.374,33.344
34.358,33.387
34.34,33.451
34.319,33.54
34.295,33.66
34.268,33.815
34.238,34.01
34.204,34.248
34.168,34.53
34.128,34.854
34.086,35.214
34.043,35.605
33.997,36.017
33.951,36.441
33.903,36.865
33.851,37.28
33.793,37.676
33.73,38.044
33.662,38.378
33.588,38.671
33.51,38.917
33.428,39.116
33.345,39.268
33.261,39.374
33.179,39.438
33.1,39.463
33.024,39.454
32.952,39.416
32.884,39.355
32.818,39.276
32.755,39.184
32.696,39.084
32.64,38.977
32.59,38.868
32.544,38.758
32.501,38.649
32.46,38.541
32.42,38.434
32.38,38.329
32.338,38.224
32.297,38.121
32.254,38.02
32.21,37.921
32.164,37.824
32.118,37.73
32.07,37.637
32.025,37.546
31.983,37.457
31.949,37.371
31.928,37.288
31.924,37.207
31.943,37.131
31.991,37.058
32.076,36.989
32.202,36.924
32.375,36.865
32.596,36.809
32.866,36.757
33.181,36.707
33.54,36.655
33.935,36.602
34.36,36.545
34.804,36.483
35.258,36.416
35.709,36.344
36.15,36.266
36.571,36.182
36.965,36.093
37.325,36
37.647,35.902
37.928,35.802
38.164,35.702
38.357,35.604
38.506,35.51
38.614,35.421
38.684,35.34
38.72,35.266
38.726,35.202
38.707,35.15
38.669,35.109
38.617,35.08
38.553,35.062
38.482,35.055
38.407,35.057
38.329,35.068
38.251,35.086
38.172,35.111
38.095,35.141
38.019,35.174
37.944,35.208
37.872,35.243
37.8,35.276
37.727,35.305
37.655,35.331
37.581,35.353
37.505,35.37
37.427,35.383
37.347,35.389
37.266,35.389
37.183,35.382
37.098,35.369
37.011,35.351
36.923,35.326
36.833,35.295
36.741,35.258
36.647,35.214
36.549,35.163
36.448,35.106
36.343,35.044
36.235,34.976
36.124,34.903
36.011,34.826
35.896,34.746
35.78,34.665
35.663,34.585
35.546,34.506
35.43,34.431
35.316,34.361
35.204,34.296
35.095,34.237
34.992,34.182
34.896,34.133
34.807,34.087
34.725,34.045
34.65,34.007
34.582,33.973
34.522,33.943
34.468,33.915
34.422,33.89
34.384,33.867
34.353,33.845
34.328,33.825
34.309,33.807
34.295,33.791
34.287,33.777
34.284,33.765
34.288,33.755
34.297,33.746
34.311,33.737
34.329,33.726
34.351,33.713
34.375,33.698
34.4,33.682
34.424,33.664
34.445,33.646
34.462,33.626
34.474,33.606
34.48,33.586
34.479,33.566
34.473,33.546
34.459,33.529
34.439,33.513
34.411,33.499
34.374,33.486
34.331,33.475
34.281,33.464
34.226,33.454
34.166,33.445
34.099,33.435
34.026,33.426
33.95,33.417
33.87,33.408
33.79,33.397
33.71,33.386
33.632,33.374
33.557,33.362
33.487,33.351
33.42,33.34
33.358,33.329
33.301,33.318
33.248,33.306
33.198,33.293
33.15,33.28
33.103,33.269
33.057,33.259
33.012,33.252
32.967,33.248
32.923,33.249
32.879,33.253
32.834,33.261
32.789,33.276
32.742,33.3
32.694,33.334
32.645,33.383
32.595,33.449
32.545,33.537
32.495,33.649
32.444,33.79
32.392,33.963
32.342,34.172
32.292,34.418
32.246,34.701
32.205,35.019
32.171,35.368
32.148,35.743
32.141,36.137
32.156,36.542
32.201,36.947
32.285,37.344
32.414,37.724
32.593,38.079
32.826,38.404
33.113,38.693
33.451,38.943
33.835,39.151
34.258,39.319
34.71,39.445
35.179,39.532
35.656,39.582
36.129,39.599
36.589,39.584
37.026,39.542
37.431,39.476
37.798,39.39
38.121,39.29
38.398,39.179
38.628,39.061
38.811,38.938
38.948,38.812
39.042,38.686
39.098,38.56
39.12,38.436
39.113,38.315
39.083,38.199
39.032,38.089
38.965,37.985
38.885,37.887
38.798,37.794
38.706,37.707
38.614,37.624
38.521,37.546
38.429,37.47
38.338,37.396
38.25,37.324
38.165,37.254
38.08,37.184
37.997,37.114
37.914,37.045
37.832,36.974
37.751,36.9
37.671,36.824
37.593,36.743
37.516,36.658
37.44,36.57
37.365,36.478
37.291,36.383
37.216,36.286
37.14,36.188
37.06,36.091
36.976,35.994
36.888,35.9
36.795,35.809
36.698,35.722
36.596,35.641
36.491,35.566
36.381,35.5
36.266,35.442
36.147,35.394
36.026,35.356
35.902,35.328
35.778,35.308
35.653,35.297
35.529,35.292
35.409,35.292
35.292,35.297
35.179,35.306
35.07,35.319
34.965,35.333
34.867,35.346
34.775,35.358
34.693,35.366
34.62,35.372
34.555,35.374
34.5,35.373
34.454,35.368
34.418,35.362
34.391,35.353
34.373,35.343
34.365,35.331
34.364,35.318
34.37,35.306
34.383,35.292
34.4,35.28
34.42,35.266
34.441,35.249
34.462,35.229
34.481,35.205
34.497,35.178
34.509,35.146
34.516,35.112
34.52,35.074
34.519,35.034
34.514,34.993
34.504,34.951
34.488,34.908
34.465,34.864
34.436,34.819
34.402,34.773
34.363,34.725
34.316,34.673
34.263,34.617
34.202,34.559
34.136,34.498
34.067,34.435
33.996,34.371
33.924,34.306
33.85,34.243
33.776,34.181
33.702,34.12
33.626,34.061
33.549,34.005
33.473,33.952
33.398,33.901
33.324,33.854
33.252,33.811
33.182,33.771
33.116,33.736
33.054,33.705
32.996,33.679
32.944,33.659
32.896,33.645
32.853,33.636
32.812,33.632
32.772,33.632
32.734,33.635
32.696,33.641
32.659,33.648
32.62,33.655
32.579,33.661
32.538,33.666
32.495,33.668
32.452,33.665
32.41,33.658
32.37,33.647
32.334,33.631
32.306,33.611
32.288,33.588
32.285,33.563
32.302,33.536
32.349,33.509
32.432,33.481
32.558,33.455
32.734,33.431
32.96,33.409
33.239,33.391
33.569,33.377
33.945,33.367
34.361,33.359
34.808,33.354
35.276,33.35
35.753,33.349
36.229,33.349
36.693,33.35
37.134,33.352
37.544,33.355
37.915,33.358
38.242,33.361
38.522,33.364
38.755,33.366
38.943,33.368
39.087,33.369
39.19,33.37
39.257,33.371
39.292,33.372
39.3,33.374
39.287,33.379
39.257,33.391
39.213,33.411
39.16,33.443
39.102,33.491
39.04,33.556
38.977,33.644
38.913,33.758
38.848,33.902
38.784,34.079
38.719,34.291
38.652,34.538
38.584,34.82
38.512,35.132
38.437,35.472
38.357,35.835
38.274,36.215
38.186,36.604
38.095,36.994
38.001,37.377
37.905,37.745
37.805,38.091
37.703,38.409
37.599,38.694
37.494,38.942
37.387,39.151
37.278,39.318
37.168,39.443
37.057,39.527
36.946,39.571
36.835,39.578
36.722,39.551
36.609,39.492
36.494,39.408
36.377,39.3
36.258,39.175
36.139,39.038
36.02,38.893
35.902,38.745
35.785,38.597
35.671,38.454
35.56,38.318
35.453,38.191
35.349,38.074
35.249,37.967
35.153,37.87
35.063,37.783
34.98,37.703
34.903,37.631
34.835,37.565
34.773,37.503
34.719,37.445
34.673,37.387
34.635,37.329
34.605,37.269
34.585,37.206
34.573,37.14
34.57,37.07
34.575,36.996
34.585,36.918
34.599,36.837
34.615,36.753
34.631,36.668
34.645,36.583
34.657,36.498
34.667,36.413
34.673,36.328
34.676,36.244
34.675,36.161
34.669,36.078
34.656,35.996
34.637,35.916
34.61,35.838
34.576,35.764
34.537,35.694
34.491,35.63
34.44,35.572
34.383,35.521
34.32,35.479
34.251,35.446
34.179,35.421
34.105,35.404
34.028,35.394
33.95,35.39
33.87,35.391
33.79,35.396
33.711,35.406
33.634,35.418
33.56,35.431
33.489,35.445
33.421,35.458
33.357,35.47
33.296,35.479
33.239,35.487
33.186,35.493
33.136,35.498
33.09,35.502
33.047,35.506
33.006,35.51
32.966,35.514
32.928,35.517
32.89,35.519
32.853,35.518
32.815,35.512
32.775,35.501
32.734,35.483
32.691,35.459
32.647,35.426
32.601,35.387
32.556,35.34
32.509,35.287
32.46,35.228
32.411,35.165
32.363,35.097
32.317,35.027
32.276,34.955
32.243,34.882
32.221,34.807
32.215,34.73
32.228,34.653
32.267,34.574
32.339,34.496
32.451,34.419
32.609,34.343
32.819,34.27
33.083,34.2
33.399,34.136
33.765,34.077
34.176,34.025
34.625,33.98
35.1,33.941
35.592,33.908
36.089,33.879
36.581,33.854
37.056,33.832
37.506,33.812
37.922,33.793
38.297,33.774
38.626,33.755
38.908,33.735
39.14,33.714
39.323,33.692
39.461,33.671
39.557,33.65
39.613,33.632
39.636,33.616
39.629,33.603
39.6,33.594
39.552,33.588
39.49,33.584
39.418,33.58
39.34,33.576
39.259,33.572
39.178,33.567
39.097,33.559
39.019,33.549
38.944,33.536
38.872,33.52
38.806,33.504
38.743,33.488
38.681,33.474
38.62,33.463
38.559,33.456
38.496,33.452
38.43,33.452
38.361,33.454
38.288,33.458
38.21,33.464
38.127,33.472
38.04,33.481
37.949,33.492
37.855,33.508
37.757,33.535
37.656,33.57
37.553,33.614
37.447,33.662
37.339,33.708
37.229,33.749
37.115,33.781
37,33.8
36.882,33.805
36.762,33.793
36.641,33.764
36.519,33.721
36.397,33.665
36.274,33.599
36.152,33.527
36.03,33.454
35.91,33.387
35.793,33.332
35.678,33.295
35.567,33.282
35.46,33.298
35.357,33.348
35.26,33.436
35.169,33.565
35.084,33.736
35.005,33.95
34.933,34.208
34.868,34.506
34.811,34.841
34.763,35.207
34.723,35.596
34.69,35.999
34.666,36.409
34.65,36.815
34.642,37.208
34.642,37.58
34.648,37.923
34.66,38.232
34.675,38.502
34.691,38.731
34.706,38.919
34.719,39.064
34.729,39.168
34.733,39.233
34.731,39.263
34.722,39.26
34.707,39.229
34.683,39.175
34.653,39.102
34.616,39.013
34.572,38.912
34.521,38.801
34.464,38.684
34.401,38.564
34.331,38.441
34.257,38.319
34.18,38.199
34.099,38.08
34.017,37.963
33.933,37.85
33.849,37.741
33.767,37.637
33.688,37.538
33.612,37.445
33.54,37.36
33.472,37.282
33.407,37.211
33.346,37.146
33.288,37.086
33.232,37.03
33.178,36.976
33.124,36.921
33.071,36.866
33.019,36.811
32.966,36.754
32.911,36.695
32.855,36.633
32.797,36.568
32.738,36.5
32.677,36.429
32.616,36.354
32.555,36.275
32.495,36.193
32.436,36.107
32.38,36.018
32.327,35.928
32.277,35.836
32.23,35.745
32.187,35.655
32.148,35.569
32.111,35.487
32.079,35.411
32.05,35.343
32.024,35.282
32.002,35.231
31.987,35.191
31.983,35.161
31.993,35.143
32.023,35.136
32.08,35.139
32.169,35.153
32.299,35.176
32.476,35.208
32.705,35.248
32.989,35.294
33.328,35.342
33.718,35.392
34.151,35.441
34.619,35.486
35.112,35.525
35.62,35.558
36.13,35.583
36.631,35.599
37.113,35.606
37.566,35.605
37.983,35.597
38.357,35.583
38.686,35.562
38.965,35.536
39.195,35.502
39.376,35.462
39.51,35.416
39.6,35.363
39.65,35.304
39.663,35.239
39.645,35.169
39.601,35.093
39.538,35.014
39.459,34.931
39.369,34.846
39.272,34.761
39.17,34.678
39.066,34.597
38.962,34.521
38.859,34.45
38.759,34.385
38.66,34.325
38.565,34.27
38.472,34.221
38.382,34.175
38.295,34.134
38.211,34.096
38.128,34.059
38.047,34.024
37.966,33.99
37.886,33.956
37.804,33.925
37.723,33.895
37.64,33.867
37.555,33.84
37.47,33.815
37.383,33.791
37.293,33.768
37.199,33.746
37.102,33.723
36.999,33.7
36.891,33.676
36.779,33.65
36.664,33.623
36.544,33.594
36.421,33.566
36.293,33.539
36.161,33.515
36.026,33.496
35.889,33.482
35.751,33.471
35.611,33.465
35.472,33.463
35.334,33.465
35.2,33.47
35.071,33.477
34.949,33.486
34.836,33.496
34.731,33.506
34.637,33.515
34.554,33.522
34.483,33.529
34.426,33.536
34.382,33.543
34.35,33.55
34.331,33.558
34.322,33.566
34.323,33.575
34.332,33.582
34.349,33.589
34.372,33.593
34.398,33.594
34.426,33.591
34.454,33.584
34.481,33.573
34.505,33.558
34.524,33.539
34.537,33.516
34.542,33.491
34.539,33.464
34.528,33.437
34.508,33.41
34.48,33.385
34.443,33.367
34.4,33.36
34.35,33.367
34.293,33.392
34.232,33.44
34.168,33.516
34.102,33.623
34.036,33.766
33.968,33.946
33.899,34.167
33.829,34.427
33.759,34.725
33.69,35.058
33.622,35.418
33.557,35.799
33.494,36.192
33.434,36.588
33.374,36.976
33.316,37.346
33.256,37.689
33.197,37.999
33.136,38.27
33.075,38.497
33.012,38.679
32.948,38.816
32.884,38.909
32.819,38.96
32.755,38.973
32.692,38.953
32.63,38.905
32.57,38.834
32.513,38.744
32.459,38.639
32.41,38.52
32.366,38.39
32.327,38.251
32.291,38.106
32.259,37.959
32.228,37.811
32.199,37.666
32.171,37.526
32.145,37.394
32.12,37.274
32.095,37.166
32.068,37.068
32.039,36.981
32.011,36.902
31.986,36.829
31.967,36.762
31.959,36.699
31.969,36.638
32.002,36.579
32.067,36.522
32.17,36.464
32.318,36.405
32.516,36.344
32.767,36.282
33.071,36.217
33.425,36.149
33.824,36.079
34.262,36.005
34.73,35.927
35.217,35.846
35.712,35.763
36.204,35.677
36.682,35.589
37.138,35.5
37.562,35.411
37.95,35.323
38.295,35.238
38.594,35.157
38.845,35.082
39.049,35.014
39.208,34.954
39.322,34.904
39.396,34.864
39.431,34.835
39.433,34.818
39.406,34.812
39.354,34.818
39.284,34.835
39.197,34.861
39.1,34.898
38.995,34.941
38.885,34.99
38.775,35.043
38.665,35.098
38.556,35.154
38.447,35.207
38.341,35.258
38.238,35.304
38.138,35.345
38.041,35.378
37.947,35.402
37.855,35.419
37.765,35.426
37.677,35.424
37.59,35.412
37.504,35.393
37.416,35.366
37.327,35.332
37.236,35.291
37.142,35.245
37.046,35.192
36.946,35.135
36.843,35.073
36.731,35.007
36.606,34.939
36.467,34.87
36.315,34.8
36.152,34.729
35.98,34.658
35.805,34.587
35.632,34.517
35.465,34.448
35.308,34.382
35.163,34.319
35.029,34.258
34.905,34.2
34.79,34.144
34.687,34.091
34.596,34.041
34.516,33.993
34.448,33.946
34.391,33.902
34.345,33.86
34.311,33.82
34.29,33.782
34.281,33.748
34.283,33.716
34.295,33.687
34.316,33.658
34.344,33.63
34.376,33.602
34.411,33.574
34.446,33.546
34.479,33.519
34.51,33.493
34.537,33.468
34.557,33.444
34.571,33.422
34.579,33.401
34.58,33.382
34.576,33.366
34.565,33.353
34.55,33.345
34.529,33.342
34.505,33.342
34.477,33.346
34.446,33.353
34.412,33.363
34.376,33.375
34.336,33.39
34.293,33.407
34.247,33.424
34.198,33.441
34.145,33.457
34.087,33.47
34.026,33.481
33.962,33.489
33.895,33.495
33.827,33.499
33.758,33.5
33.687,33.499
33.615,33.494
33.542,33.487
33.468,33.476
33.394,33.462
33.321,33.444
33.25,33.422
33.181,33.398
33.114,33.372
33.048,33.344
32.983,33.315
32.919,33.289
32.857,33.266
32.798,33.249
32.741,33.239
32.688,33.242
32.636,33.26
32.587,33.298
32.542,33.362
32.501,33.457
32.463,33.587
32.427,33.757
32.393,33.968
32.361,34.222
32.331,34.519
32.301,34.854
32.272,35.224
32.242,35.62
32.213,36.035
32.184,36.457
32.157,36.877
32.133,37.285
32.118,37.671
32.116,38.029
32.135,38.35
32.182,38.629
32.264,38.864
32.388,39.051
32.563,39.192
32.793,39.289
33.079,39.344
33.422,39.362
33.816,39.348
34.254,39.306
34.729,39.24
35.23,39.155
35.746,39.055
36.264,38.943
36.773,38.821
37.263,38.693
37.723,38.56
38.147,38.425
38.527,38.289
38.859,38.156
39.14,38.025
39.367,37.899
39.541,37.778
39.666,37.664
39.744,37.556
39.78,37.455
39.779,37.36
39.746,37.272
39.687,37.19
39.609,37.115
39.515,37.047
39.412,36.986
39.302,36.929
39.189,36.877
39.074,36.826
38.961,36.776
38.85,36.723
38.742,36.668
38.639,36.608
38.541,36.542
38.447,36.47
38.356,36.391
38.268,36.305
38.182,36.213
38.097,36.116
38.012,36.015
37.927,35.913
37.842,35.81
37.755,35.709
37.665,35.612
37.573,35.522
37.476,35.44
37.376,35.368
37.271,35.306
37.16,35.255
37.043,35.215
36.92,35.185
36.791,35.163
36.657,35.152
36.517,35.153
36.374,35.167
36.226,35.195
36.074,35.233
35.921,35.277
35.767,35.324
35.616,35.368
35.469,35.407
35.327,35.439
35.193,35.46
35.068,35.471
34.951,35.472
34.846,35.463
34.751,35.446
34.667,35.424
34.595,35.398
34.534,35.369
34.485,35.339
34.447,35.305
34.421,35.267
34.405,35.227
34.399,35.186
34.401,35.145
34.41,35.105
34.425,35.066
34.445,35.03
34.469,34.995
34.493,34.961
34.517,34.928
34.54,34.895
34.559,34.861
34.576,34.824
34.588,34.784
34.595,34.74
34.597,34.691
34.593,34.638
34.583,34.579
34.568,34.515
34.548,34.447
34.524,34.373
34.496,34.296
34.465,34.216
34.43,34.135
34.392,34.055
34.35,33.977
34.306,33.903
34.258,33.833
34.208,33.768
34.154,33.708
34.095,33.654
34.031,33.605
33.964,33.564
33.893,33.528
33.819,33.498
33.741,33.475
33.66,33.457
33.577,33.446
33.491,33.439
33.406,33.439
33.322,33.444
33.241,33.455
33.164,33.471
33.09,33.491
33.021,33.514
32.957,33.538
32.898,33.562
32.847,33.586
32.8,33.608
32.758,33.625
32.718,33.638
32.678,33.644
32.638,33.644
32.596,33.637
32.554,33.624
32.511,33.605
32.468,33.582
32.424,33.555
32.378,33.527
32.333,33.498
32.287,33.47
32.241,33.443
32.198,33.419
32.158,33.398
32.124,33.378
32.101,33.361
32.092,33.345
32.104,33.332
32.144,33.321
32.219,33.313
