Trial 1:0back,Trial 6:0back
35.588,42.139
36.041,42.083
36.492,42.017
36.934,41.945
37.363,41.866
37.774,41.785
38.164,41.701
38.528,41.617
38.865,41.533
39.173,41.447
39.448,41.362
39.691,41.276
39.901,41.191
40.078,41.108
40.224,41.027
40.34,40.946
40.428,40.864
40.49,40.781
40.529,40.697
40.547,40.61
40.548,40.523
40.535,40.433
40.509,40.34
40.473,40.245
40.428,40.146
40.375,40.043
40.314,39.936
40.247,39.823
40.173,39.704
40.093,39.579
40.005,39.449
39.912,39.314
39.813,39.176
39.709,39.035
39.6,38.891
39.489,38.746
39.377,38.6
39.263,38.456
39.149,38.315
39.035,38.18
38.921,38.052
38.808,37.931
38.694,37.819
38.581,37.715
38.467,37.62
38.353,37.533
38.239,37.454
38.125,37.38
38.013,37.312
37.901,37.249
37.79,37.192
37.68,37.139
37.571,37.09
37.463,37.045
37.358,37.003
37.255,36.964
37.156,36.928
37.061,36.893
36.97,36.858
36.887,36.824
36.81,36.789
36.741,36.754
36.678,36.717
36.624,36.678
36.576,36.636
36.535,36.592
36.501,36.544
36.473,36.495
36.452,36.443
36.437,36.39
36.426,36.336
36.42,36.28
36.416,36.224
36.414,36.165
36.411,36.104
36.407,36.039
36.399,35.971
36.388,35.9
36.372,35.827
36.351,35.751
36.326,35.674
36.296,35.596
36.262,35.518
36.224,35.439
36.182,35.359
36.136,35.277
36.085,35.193
36.031,35.108
35.972,35.023
35.908,34.938
35.841,34.854
35.77,34.773
35.696,34.695
35.617,34.62
35.535,34.549
35.45,34.479
35.362,34.412
35.272,34.345
35.182,34.278
35.091,34.21
35.002,34.142
34.914,34.072
34.827,34.001
34.741,33.931
34.656,33.86
34.571,33.791
34.487,33.723
34.403,33.655
34.321,33.588
34.239,33.52
34.16,33.452
34.082,33.384
34.006,33.315
33.934,33.247
33.866,33.181
33.802,33.116
33.743,33.054
33.688,32.994
33.638,32.936
33.59,32.88
33.546,32.825
33.505,32.772
33.465,32.722
33.427,32.673
33.389,32.626
33.351,32.579
33.313,32.534
33.274,32.49
33.233,32.447
33.192,32.405
33.149,32.366
33.107,32.328
33.064,32.293
33.021,32.259
32.979,32.226
32.938,32.194
32.898,32.163
32.859,32.132
32.819,32.102
32.779,32.073
32.74,32.044
32.702,32.016
32.664,31.989
32.628,31.963
32.594,31.937
32.561,31.912
32.531,31.887
32.503,31.864
32.477,31.843
32.453,31.823
32.429,31.805
32.405,31.787
32.38,31.769
32.353,31.751
32.324,31.733
32.293,31.715
32.26,31.698
32.226,31.683
32.189,31.668
32.152,31.654
32.114,31.64
32.076,31.626
32.039,31.612
32.003,31.597
31.968,31.581
31.934,31.563
31.902,31.542
31.872,31.52
31.844,31.496
31.818,31.471
31.795,31.444
31.773,31.418
31.752,31.392
31.732,31.366
31.713,31.341
31.693,31.317
31.674,31.294
31.654,31.272
31.633,31.25
31.611,31.229
31.589,31.209
31.568,31.189
31.548,31.17
31.531,31.151
31.518,31.133
31.509,31.113
31.507,31.094
31.515,31.074
31.537,31.055
31.577,31.037
31.64,31.022
31.73,31.012
31.852,31.009
32.009,31.016
32.204,31.037
32.439,31.074
32.714,31.132
33.029,31.215
33.382,31.325
33.771,31.466
34.191,31.641
34.639,31.854
35.107,32.105
35.59,32.397
36.081,32.73
36.572,33.103
37.058,33.514
37.532,33.963
37.989,34.443
38.425,34.951
38.835,35.479
39.217,36.022
39.569,36.571
39.891,37.121
40.182,37.666
40.444,38.198
40.677,38.711
40.883,39.2
41.064,39.66
41.221,40.088
41.354,40.479
41.465,40.833
41.553,41.148
41.62,41.424
41.665,41.66
41.691,41.858
41.697,42.019
41.684,42.146
41.654,42.241
41.607,42.307
41.547,42.347
41.473,42.364
41.39,42.36
41.298,42.338
41.201,42.3
41.1,42.248
40.996,42.184
40.891,42.109
40.787,42.025
40.682,41.935
40.579,41.841
40.475,41.744
40.372,41.646
40.268,41.548
40.162,41.451
40.055,41.355
39.946,41.261
39.836,41.17
39.723,41.082
39.607,40.995
39.488,40.911
39.368,40.828
39.245,40.748
39.121,40.67
38.997,40.593
38.872,40.518
38.747,40.442
38.623,40.365
38.501,40.285
38.382,40.2
38.265,40.109
38.154,40.011
38.048,39.906
37.947,39.794
37.853,39.676
37.766,39.551
37.685,39.421
37.61,39.286
37.541,39.148
37.477,39.009
37.418,38.869
37.363,38.729
37.312,38.592
37.265,38.456
37.221,38.322
37.181,38.192
37.144,38.067
37.11,37.947
37.08,37.832
37.051,37.722
37.024,37.617
36.999,37.519
36.975,37.428
36.952,37.343
36.929,37.265
36.908,37.192
36.888,37.125
36.866,37.064
36.843,37.006
36.816,36.952
36.786,36.901
36.749,36.852
36.705,36.805
36.653,36.759
36.592,36.714
36.522,36.67
36.445,36.627
36.359,36.584
36.266,36.541
36.167,36.498
36.064,36.454
35.957,36.41
35.849,36.363
35.741,36.314
35.635,36.261
35.532,36.205
35.434,36.143
35.343,36.076
35.258,36.005
35.18,35.93
35.109,35.853
35.044,35.774
34.985,35.694
34.93,35.613
34.879,35.532
34.829,35.45
34.781,35.367
34.733,35.282
34.682,35.196
34.629,35.108
34.573,35.017
34.513,34.926
34.45,34.834
34.383,34.743
34.313,34.653
34.24,34.565
34.165,34.479
34.088,34.396
34.009,34.316
33.931,34.238
33.853,34.164
33.776,34.092
33.702,34.024
33.631,33.957
33.564,33.894
33.501,33.832
33.444,33.773
33.391,33.716
33.343,33.66
33.3,33.605
33.263,33.549
33.229,33.493
33.2,33.436
33.175,33.378
33.152,33.32
33.13,33.261
33.108,33.201
33.086,33.141
33.061,33.081
33.033,33.02
33.002,32.959
32.968,32.897
32.931,32.835
32.891,32.774
32.85,32.713
32.81,32.654
32.77,32.598
32.732,32.544
32.698,32.495
32.667,32.449
32.639,32.408
32.616,32.37
32.597,32.337
32.581,32.306
32.567,32.277
32.555,32.25
32.543,32.224
32.531,32.2
32.518,32.177
32.505,32.157
32.49,32.14
32.474,32.126
32.458,32.117
32.441,32.111
32.422,32.108
32.403,32.108
32.382,32.11
32.359,32.112
32.335,32.113
32.308,32.113
32.278,32.111
32.245,32.106
32.208,32.097
32.169,32.084
32.126,32.066
32.082,32.045
32.037,32.021
31.993,31.993
31.95,31.964
31.912,31.934
31.881,31.903
31.86,31.872
31.85,31.841
31.854,31.81
31.874,31.78
31.913,31.752
31.972,31.724
32.056,31.698
32.166,31.674
32.306,31.651
32.477,31.629
32.682,31.608
32.92,31.588
33.193,31.568
33.499,31.548
33.837,31.528
34.205,31.508
34.599,31.486
35.017,31.463
35.452,31.438
35.901,31.412
36.359,31.385
36.821,31.357
37.282,31.329
37.738,31.3
38.184,31.27
38.616,31.241
39.029,31.212
39.42,31.184
39.785,31.158
40.121,31.137
40.426,31.122
40.699,31.117
40.94,31.124
41.147,31.148
41.322,31.193
41.465,31.264
41.577,31.365
41.659,31.499
41.714,31.67
41.744,31.878
41.751,32.125
41.738,32.41
41.709,32.731
41.665,33.087
41.611,33.474
41.547,33.89
41.476,34.331
41.399,34.795
41.318,35.276
41.234,35.769
41.146,36.269
41.057,36.769
40.966,37.264
40.873,37.749
40.779,38.218
40.681,38.666
40.582,39.09
40.481,39.486
40.377,39.852
40.272,40.184
40.166,40.482
40.059,40.743
39.951,40.969
39.843,41.16
39.735,41.321
39.626,41.452
39.516,41.555
39.406,41.633
39.294,41.686
39.182,41.718
39.069,41.729
38.956,41.724
38.843,41.703
38.73,41.669
38.617,41.624
38.507,41.569
38.398,41.505
38.291,41.433
38.187,41.356
38.087,41.273
37.99,41.186
37.899,41.096
37.812,41.004
37.732,40.91
37.658,40.816
37.591,40.72
37.531,40.623
37.48,40.524
37.437,40.423
37.402,40.32
37.375,40.217
37.355,40.112
37.339,40.004
37.329,39.894
37.321,39.779
37.313,39.661
37.304,39.54
37.29,39.416
37.273,39.289
37.249,39.161
37.219,39.032
37.181,38.901
37.136,38.767
37.083,38.632
37.023,38.493
36.957,38.352
36.885,38.208
36.809,38.064
36.729,37.92
36.647,37.779
36.564,37.642
36.481,37.51
36.398,37.383
36.317,37.263
36.239,37.151
36.163,37.047
36.089,36.953
36.019,36.867
35.95,36.79
35.882,36.72
35.815,36.657
35.747,36.599
35.678,36.546
35.608,36.496
35.535,36.447
35.459,36.401
35.378,36.356
35.292,36.314
35.202,36.274
35.108,36.237
35.01,36.203
34.908,36.172
34.805,36.142
34.703,36.112
34.601,36.082
34.503,36.051
34.408,36.018
34.318,35.983
34.233,35.945
34.154,35.905
34.082,35.861
34.016,35.813
33.956,35.762
33.9,35.708
33.847,35.65
33.796,35.587
33.746,35.521
33.694,35.45
33.641,35.377
33.585,35.301
33.527,35.223
33.467,35.143
33.405,35.063
33.341,34.982
33.276,34.901
33.211,34.818
33.147,34.734
33.084,34.649
33.022,34.563
32.963,34.476
32.905,34.389
32.85,34.303
32.798,34.218
32.749,34.134
32.703,34.052
32.662,33.97
32.625,33.889
32.593,33.808
32.563,33.729
32.537,33.651
32.513,33.575
32.491,33.499
32.469,33.423
32.448,33.35
32.427,33.277
32.405,33.206
32.382,33.136
32.356,33.066
32.329,32.997
32.299,32.927
32.267,32.857
32.233,32.786
32.197,32.717
32.159,32.649
32.119,32.583
32.079,32.52
32.04,32.46
32.001,32.404
31.963,32.35
31.925,32.298
31.889,32.248
31.854,32.2
31.819,32.152
31.784,32.106
31.749,32.06
31.715,32.015
31.682,31.971
31.651,31.928
31.621,31.886
31.593,31.844
31.569,31.804
31.549,31.764
31.534,31.725
31.527,31.685
31.529,31.646
31.544,31.608
31.575,31.57
31.626,31.533
31.699,31.499
31.798,31.467
31.925,31.438
32.083,31.412
32.274,31.39
32.498,31.371
32.757,31.356
33.047,31.344
33.369,31.333
33.719,31.323
34.093,31.312
34.488,31.301
34.897,31.288
35.317,31.274
35.739,31.258
36.161,31.24
36.575,31.222
36.978,31.202
37.367,31.181
37.736,31.159
38.084,31.138
38.409,31.118
38.706,31.098
38.977,31.078
39.219,31.059
39.433,31.039
39.618,31.019
39.776,31.001
39.908,30.983
40.015,30.967
40.099,30.953
40.161,30.939
40.205,30.926
40.23,30.914
40.24,30.903
40.237,30.892
40.221,30.882
40.194,30.871
40.158,30.86
40.113,30.846
40.06,30.829
39.999,30.81
39.933,30.787
39.861,30.761
39.785,30.732
39.704,30.702
39.62,30.67
39.533,30.638
39.444,30.607
39.353,30.579
39.262,30.554
39.172,30.536
39.081,30.526
38.991,30.528
38.902,30.546
38.813,30.584
38.722,30.646
38.631,30.736
38.539,30.859
38.445,31.016
38.349,31.212
38.249,31.447
38.147,31.72
38.04,32.032
37.93,32.38
37.816,32.763
37.7,33.178
37.581,33.621
37.46,34.087
37.34,34.571
37.221,35.069
37.107,35.576
36.998,36.086
36.897,36.592
36.804,37.089
36.72,37.571
36.645,38.033
36.58,38.471
36.524,38.883
36.476,39.264
36.435,39.612
36.4,39.927
36.37,40.206
36.343,40.452
36.32,40.664
36.299,40.845
36.279,40.995
36.258,41.117
36.237,41.214
36.216,41.285
36.193,41.333
36.168,41.359
36.141,41.365
36.11,41.354
36.077,41.329
36.039,41.293
35.998,41.247
35.952,41.193
35.903,41.131
35.851,41.063
35.796,40.989
35.739,40.909
35.681,40.827
35.621,40.741
35.56,40.653
35.501,40.565
35.444,40.475
35.388,40.385
35.332,40.297
35.277,40.21
35.221,40.125
35.164,40.044
35.106,39.964
35.045,39.886
34.983,39.807
34.917,39.726
34.848,39.642
34.775,39.553
34.7,39.46
34.622,39.362
34.542,39.258
34.461,39.149
34.378,39.036
34.296,38.916
34.213,38.792
34.13,38.662
34.049,38.527
33.97,38.388
33.894,38.247
33.822,38.104
33.754,37.96
33.69,37.817
33.63,37.676
33.574,37.539
33.522,37.408
33.472,37.284
33.424,37.169
33.378,37.061
33.332,36.962
33.288,36.872
33.243,36.79
33.197,36.715
33.149,36.646
33.099,36.581
33.047,36.521
32.992,36.464
32.935,36.41
32.876,36.361
32.815,36.316
32.754,36.274
32.693,36.237
32.634,36.204
32.577,36.174
32.523,36.145
32.473,36.118
32.428,36.09
32.387,36.062
32.35,36.033
32.316,36.002
32.285,35.968
32.257,35.932
32.23,35.893
32.204,35.851
32.178,35.807
32.151,35.76
32.125,35.711
32.098,35.659
32.07,35.607
32.043,35.554
32.016,35.5
31.99,35.444
31.964,35.388
31.939,35.33
31.914,35.269
31.889,35.206
31.864,35.139
31.839,35.069
31.814,34.996
31.789,34.92
31.763,34.843
31.737,34.764
31.711,34.683
31.684,34.603
31.657,34.523
31.63,34.444
31.601,34.367
31.572,34.292
31.541,34.218
31.509,34.146
31.476,34.075
31.442,34.006
31.408,33.94
31.374,33.875
31.341,33.813
31.309,33.751
31.278,33.688
31.25,33.625
31.224,33.56
31.202,33.494
31.185,33.425
31.173,33.355
31.17,33.284
31.177,33.213
31.199,33.143
31.24,33.075
31.302,33.009
31.39,32.948
31.506,32.89
31.652,32.836
31.829,32.784
32.038,32.734
32.278,32.685
32.548,32.636
32.846,32.586
33.168,32.535
33.51,32.482
33.869,32.428
34.239,32.375
34.615,32.323
34.991,32.274
35.365,32.227
35.731,32.181
36.085,32.136
36.423,32.092
36.742,32.047
37.04,32.002
37.315,31.957
37.561,31.913
37.776,31.872
37.958,31.832
38.111,31.794
38.238,31.758
38.343,31.724
38.426,31.692
38.491,31.66
38.54,31.628
38.575,31.595
38.596,31.561
38.605,31.525
38.603,31.488
38.594,31.449
38.576,31.412
38.552,31.376
38.522,31.342
38.488,31.312
38.45,31.285
38.41,31.261
38.368,31.24
38.323,31.22
38.278,31.202
38.231,31.185
38.182,31.17
38.132,31.156
38.081,31.144
38.029,31.133
37.974,31.122
37.917,31.113
37.857,31.103
37.796,31.094
37.731,31.086
37.662,31.078
37.59,31.07
37.515,31.061
37.435,31.05
37.351,31.037
37.262,31.022
37.169,31.003
37.071,30.979
36.967,30.95
36.859,30.917
36.748,30.879
36.636,30.839
36.523,30.797
36.413,30.754
36.31,30.712
36.214,30.671
36.128,30.632
36.05,30.594
35.979,30.556
35.916,30.521
35.866,30.489
35.832,30.458
35.815,30.428
35.812,30.401
35.821,30.378
35.838,30.358
35.859,30.342
35.88,30.333
35.898,30.331
35.91,30.34
35.913,30.36
35.906,30.389
35.889,30.424
35.863,30.467
35.826,30.522
35.78,30.595
35.726,30.692
35.666,30.818
35.601,30.977
35.532,31.174
35.459,31.411
35.385,31.688
35.309,32.006
35.234,32.362
35.162,32.754
35.092,33.178
35.025,33.628
34.962,34.099
34.901,34.584
34.844,35.077
34.789,35.57
34.735,36.057
34.683,36.532
34.632,36.99
34.58,37.427
34.526,37.838
34.469,38.222
34.411,38.576
34.351,38.899
34.288,39.19
34.223,39.449
34.157,39.674
34.089,39.868
34.021,40.03
33.954,40.164
33.887,40.27
33.821,40.351
33.756,40.408
33.691,40.444
33.627,40.46
33.563,40.461
33.499,40.449
33.436,40.424
33.374,40.39
33.312,40.345
33.253,40.292
33.198,40.232
33.146,40.164
33.097,40.092
33.051,40.015
33.008,39.937
32.966,39.858
32.926,39.781
32.887,39.706
32.848,39.634
32.811,39.564
32.773,39.494
32.735,39.423
32.696,39.352
32.654,39.279
32.61,39.205
32.562,39.13
32.509,39.053
32.453,38.976
32.392,38.896
32.329,38.814
32.264,38.73
32.199,38.641
32.137,38.548
32.079,38.45
32.027,38.348
31.979,38.241
31.936,38.13
31.899,38.014
31.866,37.893
31.837,37.767
31.811,37.639
31.787,37.509
31.764,37.379
31.74,37.251
31.717,37.126
31.691,37.008
31.662,36.896
31.631,36.793
31.596,36.697
31.559,36.607
31.52,36.522
31.48,36.442
31.44,36.367
31.401,36.298
31.363,36.235
31.327,36.176
31.294,36.122
31.264,36.074
31.236,36.03
31.21,35.99
31.186,35.954
31.163,35.919
31.141,35.886
31.119,35.853
31.098,35.819
31.077,35.783
31.056,35.744
31.036,35.703
31.016,35.658
30.996,35.611
30.976,35.56
30.954,35.508
30.93,35.454
30.904,35.399
30.875,35.344
30.844,35.288
30.809,35.231
30.774,35.174
30.737,35.117
30.701,35.058
30.668,34.997
30.638,34.934
30.615,34.866
30.601,34.795
30.6,34.72
30.615,34.642
30.65,34.562
30.707,34.479
30.789,34.396
30.9,34.311
31.039,34.227
31.207,34.143
31.404,34.061
31.628,33.982
31.876,33.907
32.145,33.834
32.432,33.766
32.732,33.699
33.043,33.634
33.359,33.569
33.676,33.505
33.991,33.439
34.301,33.371
34.603,33.3
34.894,33.225
35.172,33.147
35.436,33.068
35.684,32.988
35.914,32.91
36.127,32.833
36.321,32.76
36.495,32.691
36.651,32.626
36.787,32.565
36.905,32.508
37.003,32.452
37.085,32.399
37.151,32.348
37.202,32.297
37.24,32.247
37.266,32.197
37.279,32.148
37.282,32.098
37.276,32.047
37.262,31.994
37.24,31.938
37.212,31.881
37.179,31.822
37.141,31.762
37.101,31.701
37.059,31.639
37.016,31.579
36.973,31.521
36.931,31.467
36.89,31.417
36.849,31.372
36.809,31.332
36.769,31.296
36.73,31.263
36.69,31.232
36.648,31.203
36.605,31.175
36.558,31.148
36.509,31.121
36.456,31.093
36.401,31.065
36.342,31.035
36.279,31.002
36.214,30.967
36.146,30.93
36.076,30.891
36.003,30.85
35.929,30.809
35.854,30.767
35.779,30.725
35.705,30.683
35.632,30.641
35.561,30.6
35.493,30.559
35.43,30.52
35.372,30.483
35.319,30.448
35.271,30.417
35.23,30.389
35.195,30.364
35.164,30.343
35.137,30.323
35.114,30.303
35.092,30.282
35.073,30.259
35.054,30.234
35.035,30.205
35.016,30.174
34.996,30.14
34.973,30.104
34.947,30.067
34.919,30.029
34.889,29.991
34.856,29.954
34.822,29.919
34.787,29.887
34.751,29.856
34.716,29.827
34.681,29.8
34.648,29.773
34.616,29.746
34.584,29.72
34.553,29.694
34.522,29.669
34.49,29.646
34.456,29.623
34.419,29.601
34.381,29.581
34.339,29.561
34.294,29.543
34.245,29.525
34.193,29.508
34.14,29.49
34.086,29.471
34.031,29.45
33.974,29.427
33.917,29.401
33.86,29.373
33.801,29.342
33.742,29.31
33.682,29.277
33.622,29.245
33.561,29.215
33.5,29.188
33.44,29.168
33.381,29.154
33.324,29.151
33.268,29.159
33.214,29.181
33.161,29.219
33.11,29.277
33.06,29.357
33.011,29.461
32.963,29.592
32.915,29.752
32.868,29.943
32.822,30.164
32.776,30.416
32.73,30.698
32.684,31.008
32.639,31.342
32.594,31.698
32.549,32.07
32.503,32.454
32.457,32.843
32.411,33.234
32.365,33.621
32.319,34
32.274,34.369
32.229,34.725
32.185,35.066
32.142,35.389
32.1,35.693
32.058,35.978
32.018,36.242
31.98,36.484
31.944,36.704
31.911,36.901
31.881,37.075
31.854,37.227
31.829,37.357
31.807,37.466
31.786,37.554
31.767,37.623
31.748,37.674
31.73,37.71
31.709,37.733
31.686,37.745
31.661,37.747
31.632,37.741
31.6,37.729
31.565,37.71
31.53,37.686
31.494,37.656
31.458,37.621
31.424,37.582
31.393,37.54
31.365,37.495
31.342,37.448
31.323,37.399
31.308,37.35
31.296,37.301
31.288,37.251
31.281,37.203
31.275,37.154
31.267,37.105
31.258,37.056
31.246,37.006
31.231,36.954
31.214,36.9
31.197,36.842
31.178,36.779
31.159,36.711
31.14,36.639
31.12,36.563
31.098,36.483
31.076,36.4
31.053,36.313
31.027,36.223
31,36.132
30.97,36.038
30.939,35.943
30.907,35.847
30.875,35.75
30.844,35.654
30.817,35.559
30.792,35.467
30.773,35.379
30.758,35.296
30.747,35.22
30.741,35.151
30.739,35.091
30.74,35.039
30.742,34.994
30.745,34.957
30.745,34.927
30.741,34.903
30.732,34.883
30.716,34.866
30.695,34.851
30.668,34.835
30.638,34.819
30.605,34.802
30.571,34.784
30.536,34.765
30.502,34.745
30.469,34.726
30.439,34.708
30.414,34.691
30.396,34.676
30.386,34.661
30.387,34.647
30.402,34.632
30.432,34.615
30.48,34.596
30.549,34.574
30.641,34.548
30.757,34.519
30.9,34.487
31.069,34.452
31.263,34.414
31.482,34.374
31.723,34.331
31.985,34.286
32.263,34.239
32.556,34.189
32.858,34.137
33.167,34.085
33.478,34.032
33.788,33.98
34.092,33.93
34.386,33.881
34.666,33.833
34.931,33.787
35.179,33.742
35.408,33.695
35.619,33.646
35.811,33.593
35.985,33.537
36.142,33.477
36.281,33.415
36.405,33.352
36.513,33.29
36.607,33.229
36.688,33.17
36.758,33.114
36.82,33.061
36.875,33.01
36.925,32.962
36.97,32.915
37.011,32.868
37.047,32.821
37.078,32.773
37.105,32.723
37.126,32.673
37.142,32.621
37.154,32.567
37.161,32.511
37.164,32.455
37.162,32.398
37.158,32.341
37.151,32.285
37.143,32.231
37.134,32.179
37.124,32.131
37.116,32.087
37.107,32.046
37.099,32.009
37.089,31.975
37.078,31.943
37.064,31.912
37.046,31.88
37.026,31.846
37.001,31.809
36.971,31.771
36.937,31.731
36.899,31.691
36.856,31.65
36.809,31.61
36.758,31.57
36.702,31.531
36.642,31.492
36.579,31.454
36.514,31.416
36.448,31.38
36.382,31.346
36.319,31.314
36.258,31.284
36.201,31.258
36.147,31.235
36.099,31.215
36.056,31.199
36.017,31.186
35.983,31.175
35.952,31.166
35.925,31.158
35.901,31.149
35.88,31.138
35.86,31.124
35.841,31.106
35.823,31.083
35.806,31.057
35.79,31.028
35.775,30.997
35.76,30.966
35.745,30.936
35.731,30.907
35.717,30.88
35.703,30.855
35.688,30.833
35.673,30.813
35.657,30.795
35.64,30.778
35.622,30.763
35.604,30.749
35.585,30.735
35.564,30.722
35.543,30.71
35.52,30.698
35.494,30.688
35.466,30.679
35.435,30.669
35.401,30.661
35.364,30.654
35.324,30.649
35.281,30.65
35.236,30.658
35.186,30.676
35.134,30.707
35.078,30.755
35.018,30.823
34.957,30.912
34.893,31.024
34.828,31.162
34.762,31.326
34.698,31.515
34.635,31.728
34.575,31.964
34.518,32.223
34.464,32.502
34.412,32.799
34.363,33.11
34.317,33.431
34.274,33.756
34.233,34.082
34.194,34.404
34.157,34.719
34.122,35.022
34.088,35.312
34.055,35.588
34.023,35.849
33.991,36.094
33.959,36.322
33.927,36.532
33.893,36.724
33.858,36.896
33.821,37.05
33.783,37.184
33.744,37.3
33.703,37.398
33.66,37.48
33.618,37.547
33.574,37.603
33.53,37.646
33.486,37.679
33.443,37.701
33.4,37.713
33.358,37.715
33.317,37.71
33.278,37.697
33.241,37.677
33.206,37.653
33.171,37.623
33.139,37.589
33.106,37.551
33.074,37.511
33.042,37.468
33.01,37.424
32.977,37.38
32.944,37.337
32.91,37.294
32.875,37.251
32.838,37.208
32.802,37.165
32.766,37.12
32.731,37.074
32.698,37.025
32.667,36.974
32.638,36.922
32.61,36.868
32.585,36.812
32.561,36.754
32.538,36.694
32.516,36.63
32.496,36.563
32.476,36.494
32.456,36.422
32.435,36.348
32.414,36.271
32.393,36.194
32.371,36.115
32.35,36.036
32.328,35.957
32.305,35.88
32.282,35.806
32.258,35.736
32.233,35.671
32.206,35.61
32.179,35.555
32.15,35.505
32.121,35.46
32.091,35.421
32.062,35.387
32.032,35.355
32.004,35.325
31.977,35.296
31.952,35.267
31.928,35.24
31.904,35.214
31.881,35.189
31.858,35.166
31.835,35.145
31.812,35.125
31.788,35.106
31.764,35.09
31.741,35.076
31.72,35.065
31.699,35.056
31.678,35.049
31.658,35.043
31.639,35.034
31.62,35.023
31.6,35.007
31.58,34.985
31.559,34.959
31.537,34.928
31.514,34.894
31.491,34.856
31.468,34.817
31.446,34.777
31.426,34.736
31.408,34.694
31.394,34.651
31.383,34.606
31.375,34.56
31.371,34.512
31.369,34.463
31.369,34.414
31.37,34.365
31.372,34.316
31.374,34.267
31.375,34.219
31.375,34.17
31.373,34.12
31.369,34.068
31.362,34.015
31.352,33.961
31.34,33.906
31.325,33.852
31.307,33.799
31.288,33.748
31.267,33.698
31.245,33.651
31.223,33.606
31.202,33.562
31.182,33.518
31.164,33.475
31.15,33.432
31.139,33.388
31.132,33.345
31.129,33.302
31.127,33.259
31.127,33.218
31.128,33.178
31.127,33.141
31.126,33.105
31.123,33.07
31.118,33.037
31.114,33.004
31.111,32.97
31.112,32.937
31.12,32.902
31.138,32.866
31.168,32.828
31.213,32.789
31.276,32.749
31.358,32.707
31.461,32.665
31.585,32.623
31.732,32.581
31.903,32.539
32.096,32.496
32.312,32.455
32.549,32.414
32.804,32.375
33.075,32.338
33.359,32.303
33.653,32.272
33.953,32.244
34.256,32.221
34.558,32.202
34.857,32.186
35.151,32.172
35.437,32.16
35.712,32.147
35.974,32.134
36.222,32.12
36.454,32.104
36.669,32.087
36.865,32.068
37.043,32.047
37.202,32.024
37.344,31.999
37.469,31.972
37.58,31.944
37.677,31.915
37.761,31.885
37.835,31.856
37.898,31.829
37.952,31.804
37.999,31.781
38.039,31.761
38.073,31.742
38.103,31.723
38.13,31.706
38.156,31.687
38.18,31.668
38.202,31.648
38.225,31.628
38.246,31.607
38.266,31.587
38.285,31.566
38.303,31.547
38.32,31.528
38.336,31.51
38.351,31.493
38.364,31.476
38.376,31.459
38.387,31.441
38.395,31.422
38.401,31.401
38.405,31.379
38.406,31.358
38.405,31.339
38.401,31.323
38.393,31.313
38.382,31.311
38.367,31.319
38.348,31.341
38.325,31.377
38.297,31.43
38.264,31.502
38.226,31.596
38.185,31.712
38.139,31.853
38.09,32.018
38.037,32.207
37.982,32.418
37.924,32.651
37.866,32.903
37.806,33.173
37.748,33.458
37.691,33.755
37.636,34.061
37.584,34.374
37.536,34.691
37.492,35.008
37.453,35.321
37.419,35.628
37.39,35.925
37.365,36.209
37.342,36.479
37.322,36.734
37.303,36.972
37.285,37.192
37.266,37.396
37.247,37.581
37.224,37.749
37.198,37.899
37.168,38.03
37.136,38.142
37.1,38.236
37.062,38.314
37.023,38.375
36.985,38.424
36.946,38.462
36.909,38.489
36.873,38.506
36.838,38.515
36.806,38.517
36.775,38.513
36.746,38.505
36.719,38.493
36.693,38.479
36.667,38.463
36.64,38.444
36.61,38.424
36.578,38.403
36.542,38.38
36.502,38.357
36.457,38.332
36.406,38.307
36.351,38.281
36.291,38.254
36.227,38.225
36.159,38.194
36.09,38.16
36.02,38.123
35.951,38.083
35.886,38.04
35.826,37.994
35.77,37.946
35.72,37.895
35.675,37.842
35.635,37.785
35.599,37.725
35.566,37.662
35.536,37.595
35.507,37.525
35.48,37.453
35.452,37.378
35.423,37.301
35.394,37.223
35.362,37.144
35.328,37.065
35.29,36.986
35.249,36.907
35.204,36.83
35.155,36.754
35.104,36.681
35.049,36.611
34.993,36.545
34.935,36.483
34.877,36.427
34.819,36.376
34.762,36.332
34.708,36.293
34.656,36.261
34.609,36.236
34.566,36.216
34.528,36.202
34.495,36.19
34.466,36.181
34.44,36.172
34.417,36.163
34.396,36.154
34.375,36.145
34.352,36.136
34.329,36.126
34.303,36.115
34.275,36.103
34.243,36.089
34.209,36.072
34.173,36.053
34.135,36.032
34.096,36.009
34.057,35.984
34.019,35.957
33.981,35.928
33.945,35.897
33.909,35.863
33.875,35.827
33.843,35.789
33.812,35.749
33.783,35.707
33.754,35.662
33.727,35.617
33.7,35.57
33.674,35.522
33.649,35.473
33.625,35.422
33.602,35.37
33.579,35.318
33.556,35.265
33.533,35.21
33.508,35.155
33.482,35.1
33.454,35.044
33.423,34.989
33.389,34.934
33.353,34.879
33.316,34.824
33.279,34.77
33.242,34.715
33.207,34.661
33.174,34.606
33.142,34.552
33.113,34.498
33.088,34.445
33.065,34.394
33.046,34.343
33.029,34.294
33.012,34.244
32.996,34.194
32.98,34.145
32.962,34.095
32.942,34.044
32.92,33.994
32.895,33.945
32.868,33.898
32.838,33.851
32.806,33.806
32.772,33.76
32.736,33.714
32.698,33.668
32.658,33.622
32.619,33.575
32.58,33.529
32.543,33.483
32.51,33.439
32.482,33.397
32.459,33.358
32.441,33.322
32.429,33.287
32.421,33.254
32.418,33.22
32.42,33.187
32.424,33.153
32.43,33.119
32.436,33.085
32.442,33.052
32.446,33.021
32.447,32.992
32.444,32.965
32.436,32.939
32.425,32.913
32.409,32.888
32.391,32.863
32.37,32.837
32.347,32.811
32.323,32.784
32.299,32.757
32.275,32.732
32.252,32.707
32.231,32.683
32.211,32.661
32.192,32.639
32.176,32.619
32.16,32.6
32.146,32.581
32.132,32.561
32.118,32.542
32.105,32.522
32.092,32.502
32.079,32.482
32.067,32.462
32.055,32.443
32.042,32.424
32.028,32.406
32.013,32.388
31.996,32.37
31.978,32.353
31.96,32.336
31.94,32.321
31.92,32.305
31.9,32.29
31.881,32.275
31.866,32.26
31.854,32.244
31.848,32.226
31.848,32.207
31.856,32.187
31.875,32.165
31.907,32.141
31.953,32.116
32.016,32.09
32.1,32.064
32.207,32.039
32.338,32.015
32.494,31.992
32.675,31.97
32.881,31.95
33.11,31.93
33.363,31.91
33.636,31.89
33.927,31.868
34.232,31.845
34.546,31.821
34.867,31.797
35.19,31.772
35.512,31.746
35.83,31.722
36.141,31.698
36.443,31.675
36.733,31.655
37.009,31.637
37.272,31.623
37.52,31.613
37.752,31.608
37.967,31.61
38.165,31.62
38.348,31.641
38.513,31.676
38.661,31.729
38.794,31.801
38.911,31.895
39.013,32.013
39.101,32.155
39.175,32.324
39.236,32.517
39.287,32.735
39.328,32.977
39.361,33.24
39.386,33.522
39.405,33.82
39.419,34.132
39.43,34.454
39.439,34.784
39.448,35.119
39.458,35.454
39.468,35.787
39.48,36.114
39.493,36.433
39.506,36.741
39.519,37.036
39.534,37.318
39.549,37.583
39.565,37.832
39.583,38.063
39.602,38.275
39.621,38.469
39.64,38.644
39.658,38.801
39.676,38.94
39.692,39.061
39.704,39.165
39.712,39.252
39.716,39.323
39.713,39.38
39.702,39.424
39.683,39.457
39.655,39.479
39.62,39.493
39.577,39.499
39.527,39.5
39.471,39.495
39.41,39.488
39.344,39.477
39.277,39.463
39.208,39.448
39.141,39.431
39.076,39.413
39.014,39.395
38.956,39.376
38.903,39.357
38.856,39.337
38.815,39.315
38.78,39.293
38.749,39.269
38.722,39.243
38.697,39.216
38.675,39.186
38.654,39.153
38.634,39.117
38.615,39.079
38.597,39.037
38.579,38.992
38.56,38.943
38.54,38.889
38.519,38.831
38.497,38.769
38.474,38.703
38.45,38.632
38.424,38.558
38.396,38.481
38.366,38.402
38.334,38.321
38.299,38.24
38.261,38.158
38.22,38.078
38.177,37.999
38.132,37.925
38.086,37.854
38.037,37.788
37.987,37.726
37.934,37.669
37.879,37.615
37.823,37.566
37.765,37.522
37.707,37.483
37.649,37.448
37.59,37.417
37.532,37.39
37.475,37.365
37.419,37.344
37.363,37.324
37.308,37.305
37.253,37.286
37.197,37.268
37.141,37.249
37.085,37.23
37.028,37.212
36.971,37.194
36.911,37.175
36.85,37.155
36.787,37.133
36.723,37.108
36.658,37.082
36.593,37.053
36.528,37.023
36.463,36.992
36.399,36.958
36.336,36.922
36.273,36.883
36.21,36.841
36.148,36.797
36.088,36.75
36.03,36.7
35.975,36.647
35.921,36.592
35.87,36.536
35.821,36.479
35.773,36.421
35.726,36.363
35.68,36.303
35.635,36.243
35.589,36.182
35.543,36.119
35.497,36.058
35.451,35.997
35.406,35.939
35.361,35.882
35.317,35.826
35.274,35.77
35.233,35.714
35.194,35.657
35.156,35.598
35.121,35.537
35.087,35.477
35.055,35.415
35.025,35.354
34.997,35.294
34.97,35.235
34.944,35.175
34.918,35.115
34.892,35.054
34.866,34.993
34.838,34.931
34.809,34.869
34.778,34.808
34.743,34.749
34.706,34.692
34.667,34.636
34.626,34.583
34.583,34.532
34.54,34.483
34.497,34.435
34.455,34.387
34.415,34.341
34.377,34.295
34.341,34.249
34.306,34.204
34.273,34.159
34.242,34.115
34.211,34.072
34.183,34.032
34.157,33.993
34.132,33.955
34.11,33.918
34.089,33.883
34.07,33.85
34.052,33.819
34.035,33.789
34.018,33.76
34.001,33.731
33.983,33.701
33.965,33.67
33.947,33.638
33.927,33.604
33.906,33.57
33.883,33.536
33.857,33.501
33.829,33.467
33.8,33.432
33.77,33.398
33.74,33.365
33.71,33.334
33.683,33.306
33.656,33.279
33.631,33.254
33.608,33.23
33.586,33.206
33.567,33.183
33.549,33.16
33.532,33.137
33.515,33.114
33.498,33.09
33.481,33.066
33.463,33.042
33.444,33.017
33.424,32.991
33.403,32.964
33.381,32.934
33.356,32.903
33.329,32.87
33.3,32.836
33.269,32.802
33.236,32.767
33.203,32.732
33.171,32.697
33.14,32.663
33.11,32.629
33.083,32.598
33.058,32.569
33.035,32.543
33.014,32.521
32.995,32.501
32.977,32.485
32.961,32.472
32.947,32.462
32.934,32.451
32.922,32.44
32.912,32.428
32.902,32.413
32.895,32.395
32.888,32.374
32.883,32.35
32.878,32.324
32.872,32.297
32.864,32.269
32.852,32.242
32.838,32.215
32.821,32.189
32.801,32.163
32.778,32.137
32.754,32.111
32.728,32.086
32.702,32.061
32.676,32.037
32.65,32.015
32.623,31.993
32.596,31.973
32.57,31.955
32.543,31.938
32.516,31.923
32.489,31.909
32.461,31.895
32.435,31.883
32.409,31.87
32.386,31.858
32.365,31.847
32.348,31.836
32.336,31.827
32.333,31.819
32.338,31.811
32.356,31.803
32.388,31.795
32.437,31.786
32.505,31.775
32.594,31.764
32.708,31.751
32.846,31.737
33.009,31.723
33.199,31.708
33.413,31.693
33.651,31.679
33.911,31.664
34.192,31.65
34.49,31.636
34.802,31.62
35.126,31.604
35.456,31.588
35.791,31.573
36.127,31.561
36.46,31.555
36.787,31.558
37.102,31.574
37.404,31.604
37.688,31.651
37.952,31.717
38.194,31.805
38.412,31.917
38.606,32.054
38.774,32.217
38.919,32.407
39.041,32.624
39.141,32.867
39.221,33.137
39.285,33.431
39.333,33.747
39.368,34.082
39.393,34.434
39.409,34.799
39.418,35.172
39.421,35.549
39.42,35.925
39.417,36.299
39.41,36.665
39.401,37.022
39.392,37.366
39.381,37.693
39.37,38.002
39.356,38.292
39.341,38.562
39.323,38.811
39.303,39.04
39.28,39.248
39.255,39.433
39.228,39.598
39.2,39.741
39.17,39.865
39.14,39.969
39.109,40.056
39.08,40.127
39.052,40.183
39.028,40.227
39.006,40.259
38.988,40.281
38.971,40.293
38.955,40.298
38.939,40.297
38.922,40.291
38.902,40.281
38.877,40.268
38.848,40.253
38.813,40.238
38.772,40.223
38.724,40.209
38.67,40.196
38.608,40.184
38.541,40.172
38.47,40.158
38.394,40.142
38.317,40.125
38.239,40.105
38.163,40.084
38.089,40.06
38.018,40.035
37.95,40.007
37.886,39.976
37.825,39.942
37.768,39.904
37.714,39.862
37.664,39.814
37.617,39.763
37.572,39.706
37.529,39.644
37.486,39.577
37.441,39.503
37.395,39.423
37.346,39.338
37.295,39.249
37.24,39.158
37.183,39.066
37.124,38.975
37.062,38.885
37,38.796
36.938,38.711
36.877,38.629
36.819,38.552
36.762,38.478
36.708,38.41
36.657,38.347
36.608,38.289
36.561,38.235
36.515,38.186
36.47,38.141
36.426,38.099
36.381,38.06
36.336,38.023
36.289,37.99
36.239,37.961
36.186,37.934
36.13,37.91
36.068,37.886
36.002,37.864
35.931,37.842
35.857,37.82
35.779,37.798
35.698,37.774
35.615,37.749
35.53,37.722
35.445,37.694
35.361,37.664
35.278,37.632
35.197,37.598
35.117,37.562
35.038,37.524
34.96,37.486
34.882,37.446
34.805,37.404
34.728,37.361
34.651,37.314
34.573,37.266
34.495,37.216
34.417,37.164
34.339,37.111
34.261,37.057
34.185,37.001
34.11,36.944
34.038,36.886
33.97,36.827
33.906,36.768
33.847,36.709
33.792,36.65
33.742,36.591
33.697,36.531
33.654,36.469
33.614,36.406
33.575,36.341
33.536,36.274
33.497,36.207
33.455,36.138
33.412,36.068
33.366,35.998
33.317,35.928
33.267,35.859
33.216,35.791
33.162,35.722
33.108,35.652
33.052,35.583
32.996,35.514
32.941,35.445
32.887,35.377
32.833,35.31
32.782,35.243
32.732,35.179
32.685,35.116
32.64,35.055
32.596,34.997
32.552,34.942
32.509,34.888
32.467,34.837
32.425,34.787
32.384,34.738
32.344,34.689
32.305,34.64
32.265,34.591
32.224,34.541
32.183,34.491
32.141,34.44
32.098,34.39
32.054,34.339
32.01,34.29
31.965,34.242
31.92,34.196
31.877,34.153
31.834,34.111
31.792,34.071
31.752,34.032
31.714,33.992
31.677,33.951
31.642,33.909
31.609,33.865
31.577,33.821
31.545,33.777
31.514,33.733
31.484,33.69
31.453,33.649
31.422,33.612
31.392,33.578
31.362,33.548
31.334,33.52
31.307,33.494
31.282,33.469
31.258,33.445
31.236,33.421
31.216,33.399
31.197,33.377
31.18,33.357
31.163,33.336
31.147,33.314
31.13,33.291
31.112,33.264
31.092,33.235
31.071,33.204
31.049,33.172
31.025,33.139
31.001,33.107
30.977,33.077
30.953,33.05
30.93,33.027
30.908,33.006
30.887,32.987
30.868,32.97
30.85,32.954
30.835,32.938
30.821,32.921
30.808,32.903
30.797,32.883
30.787,32.862
30.778,32.84
30.77,32.816
30.761,32.791
30.752,32.766
30.743,32.74
30.733,32.713
30.723,32.687
30.712,32.661
30.7,32.634
30.685,32.608
30.67,32.581
30.652,32.554
30.632,32.527
30.61,32.5
30.588,32.472
30.564,32.445
30.541,32.418
30.519,32.392
30.497,32.365
30.478,32.337
30.462,32.31
30.452,32.283
30.449,32.256
30.457,32.23
30.478,32.205
30.515,32.182
30.57,32.16
30.645,32.138
30.741,32.118
30.862,32.097
31.006,32.077
31.174,32.056
31.366,32.034
31.58,32.011
31.816,31.985
32.073,31.958
32.348,31.928
32.638,31.897
32.941,31.865
33.257,31.831
33.581,31.798
33.912,31.767
34.248,31.738
34.586,31.715
34.923,31.698
35.255,31.689
35.582,31.692
35.898,31.707
36.203,31.736
36.492,31.781
36.764,31.844
37.018,31.926
37.25,32.028
37.462,32.152
37.651,32.3
37.82,32.471
37.966,32.669
38.092,32.893
38.196,33.143
38.281,33.419
38.347,33.72
38.396,34.042
38.431,34.382
38.454,34.739
38.466,35.107
38.471,35.484
38.47,35.866
38.464,36.249
38.455,36.629
38.443,37.003
38.429,37.367
38.414,37.718
38.396,38.053
38.377,38.37
38.356,38.669
38.333,38.949
38.307,39.209
38.277,39.446
38.244,39.661
38.208,39.853
38.169,40.022
38.127,40.169
38.081,40.295
38.034,40.402
37.986,40.491
37.937,40.563
37.889,40.621
37.843,40.666
37.799,40.698
37.755,40.719
37.712,40.728
37.669,40.728
37.625,40.718
37.579,40.701
37.533,40.677
37.484,40.647
37.434,40.613
37.381,40.576
37.324,40.537
37.264,40.497
37.199,40.455
37.13,40.413
37.057,40.369
36.981,40.323
36.902,40.275
36.822,40.226
36.742,40.175
36.663,40.123
36.586,40.07
36.513,40.015
36.445,39.958
36.383,39.899
36.328,39.835
36.28,39.768
36.24,39.697
36.206,39.624
36.18,39.55
36.159,39.474
36.144,39.396
36.131,39.317
36.121,39.237
36.111,39.156
36.101,39.076
36.088,38.995
36.071,38.912
36.049,38.829
36.022,38.743
35.99,38.657
35.954,38.571
35.913,38.486
35.869,38.404
35.822,38.326
35.774,38.253
35.726,38.186
35.677,38.127
35.629,38.073
35.581,38.025
35.534,37.981
35.487,37.94
35.442,37.902
35.397,37.867
35.355,37.832
35.313,37.798
35.271,37.763
35.23,37.728
35.189,37.692
35.147,37.658
35.104,37.624
35.059,37.591
35.012,37.56
34.962,37.53
34.91,37.501
34.854,37.474
34.797,37.447
34.737,37.421
34.675,37.394
34.612,37.366
34.546,37.336
34.479,37.302
34.41,37.266
34.342,37.225
34.273,37.179
34.204,37.127
34.137,37.069
34.072,37.006
34.009,36.939
33.949,36.869
33.892,36.796
33.837,36.719
33.785,36.635
33.736,36.545
33.688,36.451
33.642,36.356
33.595,36.264
33.548,36.177
33.498,36.096
33.446,36.022
33.39,35.954
33.331,35.892
33.27,35.835
33.208,35.783
33.144,35.734
33.081,35.688
33.018,35.644
32.957,35.601
32.899,35.558
32.845,35.516
32.795,35.474
32.75,35.432
32.709,35.389
32.672,35.344
32.639,35.296
32.609,35.244
32.581,35.188
32.555,35.127
32.529,35.062
32.504,34.995
32.478,34.926
32.452,34.857
32.425,34.789
32.395,34.723
32.363,34.659
32.328,34.598
32.291,34.54
32.25,34.483
32.207,34.428
32.161,34.374
32.115,34.322
32.069,34.271
32.024,34.22
31.981,34.171
31.941,34.121
31.906,34.072
31.874,34.023
31.848,33.973
31.826,33.922
31.808,33.871
31.792,33.821
31.779,33.772
31.768,33.724
31.758,33.678
31.747,33.634
31.736,33.591
31.723,33.55
31.708,33.51
31.69,33.471
31.67,33.431
31.647,33.391
31.622,33.35
31.595,33.308
31.565,33.267
31.535,33.227
31.503,33.189
31.473,33.153
31.442,33.121
31.413,33.091
31.386,33.064
31.36,33.04
31.337,33.017
31.316,32.997
31.297,32.977
31.279,32.958
31.263,32.937
31.248,32.914
31.233,32.888
31.217,32.857
31.202,32.823
31.185,32.785
31.168,32.745
31.149,32.705
31.131,32.665
31.111,32.627
31.092,32.593
31.074,32.565
31.056,32.541
31.039,32.523
31.025,32.509
31.013,32.499
31.006,32.49
31.005,32.482
31.015,32.473
31.038,32.462
31.078,32.449
31.138,32.434
31.222,32.416
31.335,32.396
31.477,32.375
31.652,32.352
31.859,32.33
32.098,32.307
32.368,32.286
32.664,32.266
32.984,32.247
33.324,32.229
33.678,32.213
34.041,32.198
34.409,32.184
34.777,32.17
35.141,32.157
35.498,32.144
35.846,32.131
36.181,32.118
36.501,32.102
36.804,32.084
37.088,32.061
37.351,32.036
37.594,32.008
37.816,31.979
38.016,31.949
38.196,31.921
38.355,31.894
38.496,31.869
38.618,31.844
38.722,31.822
38.809,31.801
38.879,31.782
38.933,31.767
38.97,31.754
38.993,31.745
39.002,31.74
38.998,31.74
38.984,31.749
38.959,31.766
38.927,31.796
38.89,31.839
38.848,31.9
38.802,31.981
38.754,32.085
38.706,32.216
38.66,32.375
38.615,32.567
38.572,32.791
38.533,33.048
38.495,33.337
38.461,33.655
38.429,33.999
38.399,34.366
38.372,34.75
38.346,35.15
38.321,35.561
38.295,35.978
38.268,36.398
38.236,36.818
38.2,37.233
38.159,37.639
38.112,38.033
38.059,38.411
38,38.77
37.935,39.108
37.866,39.423
37.793,39.714
37.715,39.981
37.634,40.223
37.551,40.439
37.467,40.631
37.382,40.798
37.298,40.943
37.217,41.066
37.14,41.167
37.068,41.248
37.001,41.31
36.94,41.354
36.885,41.383
36.834,41.399
36.786,41.404
36.741,41.4
36.699,41.388
36.658,41.369
36.617,41.345
36.577,41.316
36.534,41.283
36.49,41.248
36.445,41.211
36.4,41.172
36.355,41.132
36.311,41.09
36.27,41.046
36.233,41.001
36.201,40.953
36.173,40.903
36.15,40.851
36.133,40.795
36.121,40.736
36.114,40.674
36.111,40.61
36.11,40.544
36.111,40.477
36.111,40.407
36.108,40.333
36.101,40.255
36.088,40.173
36.069,40.087
36.043,39.997
36.01,39.904
35.969,39.808
35.92,39.709
35.864,39.608
35.802,39.507
35.734,39.406
35.662,39.305
35.587,39.203
35.51,39.102
35.432,39.001
35.356,38.901
35.28,38.803
35.207,38.708
35.137,38.616
35.07,38.529
35.006,38.447
34.945,38.371
34.887,38.303
34.832,38.241
34.779,38.185
34.726,38.133
34.675,38.084
34.623,38.039
34.572,37.997
34.52,37.958
34.468,37.922
34.415,37.89
34.361,37.862
34.307,37.836
34.251,37.813
34.195,37.793
34.137,37.773
34.079,37.754
34.02,37.734
33.96,37.713
33.9,37.692
33.84,37.669
33.78,37.644
33.722,37.617
33.665,37.586
33.611,37.553
33.559,37.517
33.509,37.479
33.463,37.439
33.418,37.397
33.375,37.352
33.332,37.302
33.289,37.248
33.247,37.189
33.203,37.125
33.16,37.057
33.114,36.986
33.067,36.914
33.018,36.842
32.968,36.77
32.915,36.699
32.862,36.629
32.808,36.56
32.755,36.492
32.704,36.422
32.653,36.352
32.605,36.279
32.56,36.205
32.518,36.13
32.479,36.054
32.444,35.978
32.412,35.902
32.383,35.827
32.357,35.751
32.333,35.677
32.309,35.604
32.287,35.533
32.265,35.463
32.244,35.394
32.221,35.326
32.197,35.258
32.171,35.19
32.141,35.121
32.108,35.051
32.074,34.981
32.038,34.911
32.001,34.842
31.964,34.775
31.929,34.711
31.896,34.649
31.865,34.59
31.839,34.532
31.817,34.477
31.801,34.421
31.792,34.366
31.791,34.311
31.8,34.254
31.821,34.196
31.854,34.138
31.902,34.081
31.965,34.026
32.045,33.971
32.144,33.919
32.263,33.869
32.403,33.82
32.566,33.775
32.753,33.732
32.963,33.69
33.196,33.651
33.45,33.615
33.724,33.58
34.015,33.547
34.32,33.514
34.635,33.481
34.959,33.447
35.286,33.412
35.614,33.376
35.938,33.34
36.256,33.304
36.562,33.269
36.857,33.237
37.137,33.207
37.401,33.179
37.648,33.154
37.877,33.131
38.086,33.109
38.275,33.088
38.442,33.066
38.588,33.043
38.713,33.019
38.816,32.993
38.899,32.966
38.961,32.939
39.005,32.911
39.03,32.882
39.039,32.853
39.032,32.823
39.011,32.794
38.977,32.765
38.933,32.738
38.88,32.712
38.821,32.688
38.758,32.667
38.691,32.648
38.623,32.631
38.554,32.616
38.484,32.602
38.415,32.588
38.347,32.573
38.28,32.556
38.215,32.537
38.152,32.515
38.089,32.49
38.025,32.463
37.962,32.433
37.897,32.403
37.832,32.372
37.766,32.342
37.699,32.314
37.631,32.287
37.563,32.263
37.493,32.241
37.422,32.219
37.349,32.198
37.275,32.177
37.199,32.155
37.122,32.133
37.044,32.11
36.965,32.087
36.887,32.063
36.808,32.039
36.731,32.014
36.654,31.99
36.578,31.966
36.503,31.942
36.431,31.922
36.362,31.907
36.296,31.899
36.235,31.9
36.178,31.913
36.128,31.941
36.083,31.985
36.045,32.048
36.012,32.131
35.985,32.238
35.963,32.37
35.946,32.531
35.932,32.721
35.92,32.941
35.911,33.193
35.902,33.478
35.894,33.794
35.885,34.139
35.875,34.512
35.865,34.908
35.853,35.325
35.841,35.758
35.827,36.203
35.814,36.653
35.799,37.104
35.783,37.55
35.765,37.986
35.744,38.408
35.721,38.812
35.696,39.196
35.668,39.557
35.638,39.893
35.607,40.204
35.575,40.486
35.542,40.739
35.508,40.962
35.473,41.156
35.436,41.322
35.398,41.461
35.358,41.574
35.317,41.664
35.274,41.73
35.229,41.775
35.183,41.799
35.134,41.806
35.082,41.797
35.029,41.773
34.974,41.736
34.919,41.688
34.862,41.629
34.803,41.561
34.742,41.487
34.68,41.409
34.617,41.329
34.551,41.246
34.484,41.162
34.417,41.076
34.349,40.988
34.281,40.898
34.214,40.809
34.147,40.72
34.082,40.632
34.019,40.546
33.958,40.462
33.9,40.378
33.845,40.295
33.793,40.213
33.744,40.13
33.698,40.047
33.653,39.962
33.61,39.876
33.568,39.789
33.527,39.701
33.487,39.611
33.447,39.519
33.406,39.425
33.366,39.329
33.325,39.23
33.284,39.129
33.243,39.025
33.202,38.92
33.161,38.814
33.119,38.709
33.076,38.607
33.032,38.51
32.988,38.419
32.943,38.335
32.897,38.26
32.852,38.192
32.806,38.132
32.76,38.08
32.715,38.034
32.671,37.994
32.628,37.959
32.587,37.929
32.549,37.904
32.514,37.882
32.482,37.862
32.452,37.844
32.425,37.826
32.4,37.809
32.377,37.794
32.357,37.778
32.338,37.762
32.323,37.746
32.311,37.728
32.307,37.708
32.311,37.687
32.328,37.665
32.361,37.641
32.413,37.613
32.487,37.581
32.585,37.546
32.708,37.507
32.859,37.466
33.038,37.421
33.245,37.373
33.481,37.321
33.744,37.266
34.031,37.208
34.338,37.148
34.662,37.086
35,37.024
35.346,36.96
35.698,36.896
36.05,36.832
36.398,36.769
36.739,36.706
37.067,36.644
37.382,36.581
37.68,36.518
37.959,36.456
38.217,36.392
38.453,36.327
38.665,36.26
38.854,36.19
39.02,36.118
39.163,36.044
39.286,35.97
39.388,35.894
39.471,35.817
39.537,35.734
39.585,35.646
39.618,35.56
39.636,35.478
39.641,35.403
39.633,35.336
39.613,35.275
39.582,35.221
39.54,35.172
39.488,35.126
39.428,35.083
39.36,35.039
39.285,34.994
39.204,34.947
39.12,34.898
39.033,34.847
38.943,34.793
38.853,34.737
38.763,34.678
38.674,34.618
38.586,34.557
38.5,34.493
38.418,34.428
38.338,34.363
38.261,34.297
38.185,34.233
38.111,34.17
38.036,34.109
37.962,34.053
37.885,34.001
37.807,33.953
37.727,33.908
37.644,33.866
37.559,33.824
37.471,33.783
37.382,33.742
37.292,33.702
37.201,33.662
37.11,33.624
37.018,33.587
36.927,33.551
36.839,33.517
36.753,33.485
36.672,33.455
36.594,33.427
36.522,33.4
36.456,33.375
36.396,33.35
36.343,33.325
36.295,33.301
36.254,33.276
36.218,33.252
36.186,33.226
36.158,33.2
36.135,33.172
36.115,33.143
36.098,33.112
36.083,33.08
36.07,33.047
36.058,33.015
36.046,32.982
36.035,32.951
36.024,32.92
36.012,32.891
35.998,32.862
35.984,32.834
35.967,32.807
35.949,32.782
35.928,32.757
35.906,32.734
35.883,32.711
35.857,32.689
35.828,32.668
35.796,32.648
35.76,32.629
35.72,32.612
35.676,32.595
35.627,32.578
35.573,32.561
35.514,32.544
35.45,32.526
35.384,32.509
35.316,32.493
35.247,32.477
35.179,32.46
35.113,32.443
35.049,32.425
34.987,32.406
34.929,32.387
34.875,32.367
34.824,32.349
34.775,32.332
34.728,32.32
34.682,32.315
34.638,32.32
34.593,32.339
34.547,32.375
34.499,32.431
34.449,32.511
34.397,32.617
34.343,32.753
34.286,32.921
34.227,33.123
34.165,33.361
34.101,33.636
34.034,33.946
33.965,34.291
33.896,34.666
33.827,35.068
33.759,35.493
33.691,35.936
33.624,36.393
33.559,36.859
33.495,37.328
33.431,37.794
33.368,38.254
33.306,38.7
33.244,39.129
33.185,39.537
33.127,39.922
33.072,40.28
33.019,40.61
32.971,40.911
32.927,41.18
32.887,41.416
32.852,41.619
32.82,41.791
32.789,41.933
32.758,42.046
32.727,42.133
32.694,42.196
32.659,42.237
32.621,42.257
32.583,42.259
32.543,42.246
32.504,42.22
32.463,42.183
32.423,42.136
32.383,42.08
32.343,42.017
32.305,41.949
32.268,41.876
32.234,41.8
32.206,41.722
32.183,41.642
32.17,41.562
32.167,41.48
32.177,41.397
32.204,41.314
32.25,41.23
32.318,41.148
32.41,41.067
32.528,40.988
32.673,40.909
32.846,40.83
33.049,40.75
33.281,40.67
33.54,40.588
33.825,40.505
34.132,40.42
34.459,40.329
34.802,40.234
35.159,40.132
35.524,40.025
35.894,39.913
36.264,39.796
36.63,39.674
36.988,39.55
37.335,39.425
37.668,39.299
37.984,39.175
38.281,39.052
38.557,38.932
38.811,38.815
39.041,38.703
39.248,38.596
39.432,38.495
39.592,38.4
39.728,38.312
39.842,38.228
39.934,38.151
40.006,38.08
40.057,38.016
40.09,37.957
40.105,37.904
40.105,37.855
40.092,37.811
40.066,37.771
40.03,37.736
39.986,37.704
39.933,37.675
39.874,37.649
39.808,37.626
39.737,37.604
39.661,37.583
39.581,37.563
39.498,37.543
39.412,37.522
39.324,37.5
39.235,37.476
39.145,37.451
39.055,37.425
38.967,37.396
38.879,37.366
38.791,37.333
38.703,37.298
38.615,37.259
38.527,37.218
38.44,37.172
38.353,37.123
38.268,37.07
38.183,37.014
38.099,36.955
38.015,36.891
37.931,36.824
37.847,36.754
37.764,36.683
37.681,36.61
37.597,36.538
37.513,36.467
37.429,36.396
37.346,36.326
37.264,36.257
37.183,36.188
37.103,36.119
37.025,36.048
36.95,35.975
36.878,35.902
36.809,35.829
36.743,35.756
36.682,35.682
36.624,35.608
36.57,35.532
36.521,35.455
36.475,35.378
36.434,35.301
36.397,35.225
36.365,35.148
36.335,35.072
36.309,34.998
36.287,34.925
36.266,34.854
36.247,34.784
36.23,34.716
36.212,34.649
36.194,34.584
36.174,34.521
36.152,34.46
36.127,34.4
36.1,34.342
36.07,34.286
36.038,34.231
36.002,34.178
35.963,34.127
35.921,34.077
35.876,34.027
35.83,33.978
35.782,33.928
35.734,33.879
35.685,33.83
35.635,33.781
35.583,33.732
35.53,33.683
35.476,33.635
35.419,33.588
35.36,33.542
35.298,33.498
35.233,33.455
35.166,33.415
35.097,33.377
35.026,33.34
34.954,33.305
34.881,33.271
34.809,33.239
34.739,33.207
34.672,33.178
34.607,33.149
34.546,33.122
34.488,33.097
34.433,33.074
34.38,33.053
34.329,33.034
34.278,33.016
34.228,32.999
34.177,32.981
34.124,32.962
34.074,32.942
34.028,32.92
33.985,32.898
33.946,32.876
33.912,32.855
33.884,32.834
33.861,32.815
33.84,32.797
33.816,32.78
33.785,32.763
33.744,32.747
33.685,32.729
33.608,32.711
33.514,32.693
33.406,32.675
33.29,32.659
33.171,32.644
33.054,32.629
32.942,32.617
32.839,32.604
32.748,32.592
32.67,32.577
32.605,32.559
32.553,32.537
32.514,32.511
32.486,32.482
32.467,32.45
32.453,32.416
32.443,32.381
32.433,32.346
32.422,32.311
32.407,32.276
32.387,32.241
32.361,32.205
32.33,32.172
32.294,32.141
32.252,32.114
32.207,32.092
32.16,32.079
32.113,32.077
32.07,32.089
32.034,32.119
32.009,32.171
32.001,32.248
32.013,32.354
32.05,32.492
32.115,32.663
32.21,32.87
32.336,33.112
32.496,33.392
32.688,33.708
32.914,34.059
33.17,34.443
33.455,34.855
33.766,35.293
34.098,35.751
34.447,36.224
34.81,36.708
35.181,37.196
35.556,37.683
35.933,38.165
36.306,38.636
36.672,39.093
37.028,39.531
37.371,39.946
37.698,40.334
38.005,40.693
38.29,41.02
38.551,41.316
38.788,41.579
38.998,41.81
39.182,42.008
39.339,42.174
39.469,42.309
39.575,42.415
39.656,42.494
39.716,42.548
39.756,42.58
39.78,42.591
39.788,42.584
39.781,42.561
39.76,42.523
39.729,42.474
39.687,42.414
39.636,42.347
39.578,42.273
39.514,42.194
39.443,42.112
39.368,42.027
39.29,41.942
39.211,41.856
39.132,41.77
39.053,41.684
38.975,41.597
38.898,41.511
38.823,41.425
38.748,41.337
38.673,41.249
38.598,41.158
38.521,41.065
38.442,40.97
38.359,40.875
38.272,40.78
38.181,40.683
38.086,40.586
37.986,40.486
37.884,40.382
37.779,40.274
37.674,40.162
37.567,40.047
37.461,39.927
37.355,39.805
37.251,39.679
37.148,39.551
37.047,39.423
36.949,39.295
36.854,39.168
36.764,39.044
36.677,38.923
36.595,38.808
36.517,38.697
36.444,38.593
36.376,38.495
36.313,38.404
36.254,38.318
36.201,38.239
36.153,38.166
36.11,38.098
36.071,38.035
36.036,37.977
36.005,37.924
35.977,37.875
35.952,37.83
35.93,37.79
35.91,37.755
35.892,37.725
35.875,37.698
35.861,37.676
35.847,37.656
35.835,37.638
35.823,37.62
35.811,37.601
35.797,37.579
35.78,37.555
35.759,37.527
35.734,37.495
35.703,37.459
35.667,37.419
35.626,37.374
35.581,37.325
35.532,37.272
35.479,37.216
35.423,37.157
35.366,37.095
35.307,37.032
35.247,36.967
35.186,36.901
35.125,36.834
35.064,36.764
35.002,36.692
34.941,36.618
34.88,36.542
34.821,36.464
34.764,36.385
34.707,36.305
34.652,36.225
34.597,36.143
34.542,36.061
34.487,35.977
34.433,35.893
34.377,35.807
34.321,35.721
34.263,35.637
34.203,35.554
34.141,35.474
34.076,35.394
34.008,35.316
33.937,35.237
33.864,35.159
33.79,35.082
33.716,35.007
33.643,34.935
33.57,34.867
33.499,34.802
33.432,34.741
33.368,34.682
33.31,34.626
33.256,34.571
33.207,34.518
33.162,34.466
33.12,34.414
33.081,34.363
33.042,34.313
33.003,34.263
32.964,34.214
32.923,34.165
32.88,34.116
32.835,34.066
32.787,34.014
32.737,33.962
32.685,33.909
32.631,33.857
32.577,33.806
32.522,33.757
32.469,33.71
32.417,33.665
32.367,33.623
32.319,33.583
32.273,33.545
32.23,33.509
32.19,33.475
32.156,33.441
32.126,33.409
32.101,33.376
32.08,33.342
32.063,33.307
32.05,33.272
32.037,33.236
32.024,33.2
32.01,33.163
31.993,33.127
31.972,33.092
31.947,33.057
31.915,33.024
31.878,32.992
31.837,32.961
31.794,32.931
31.749,32.902
31.705,32.875
31.662,32.849
31.624,32.825
31.591,32.799
31.567,32.774
31.553,32.747
31.554,32.72
31.571,32.692
31.608,32.663
31.668,32.633
31.755,32.602
31.87,32.57
32.015,32.539
32.192,32.508
32.4,32.478
32.639,32.451
32.908,32.427
33.205,32.409
33.526,32.396
33.868,32.388
34.227,32.384
34.599,32.383
34.978,32.381
35.359,32.379
35.739,32.373
36.111,32.365
36.471,32.353
36.817,32.338
37.146,32.321
37.456,32.303
37.744,32.285
38.009,32.266
38.252,32.245
38.471,32.22
38.667,32.192
38.84,32.156
38.992,32.11
39.124,32.054
39.235,31.991
39.327,31.924
39.401,31.857
39.457,31.794
39.496,31.737
39.519,31.689
39.527,31.651
39.519,31.623
39.498,31.606
39.463,31.599
39.415,31.601
39.357,31.612
39.289,31.632
39.213,31.662
39.13,31.703
39.043,31.756
38.953,31.821
38.862,31.902
38.772,32.001
38.684,32.122
38.598,32.269
38.517,32.445
38.439,32.653
38.365,32.897
38.295,33.178
38.228,33.496
38.161,33.851
38.094,34.241
38.025,34.662
37.953,35.112
37.877,35.585
37.797,36.077
37.711,36.582
37.619,37.093
37.523,37.604
37.421,38.109
37.316,38.602
37.209,39.078
37.101,39.532
36.994,39.961
36.89,40.362
36.79,40.73
36.695,41.064
36.607,41.362
36.526,41.623
36.452,41.848
36.386,42.038
36.327,42.193
36.276,42.316
36.232,42.408
36.195,42.471
36.165,42.507
36.139,42.519
36.118,42.51
36.099,42.482
36.083,42.44
36.068,42.384
36.054,42.318
36.04,42.244
36.027,42.164
36.013,42.078
35.998,41.99
35.981,41.901
35.962,41.81
35.94,41.72
35.915,41.631
35.887,41.542
35.857,41.455
35.825,41.37
35.79,41.286
35.753,41.203
35.714,41.122
35.675,41.044
35.635,40.966
35.595,40.89
35.554,40.814
35.512,40.739
35.468,40.663
35.423,40.587
35.376,40.509
35.328,40.427
35.28,40.342
35.232,40.251
35.186,40.153
35.141,40.05
35.097,39.941
35.055,39.825
35.013,39.703
34.971,39.575
34.929,39.441
34.886,39.304
34.842,39.165
34.797,39.027
34.75,38.89
34.7,38.755
34.647,38.626
34.59,38.502
34.53,38.386
34.465,38.276
34.397,38.174
34.324,38.08
34.248,37.994
34.17,37.916
34.091,37.846
34.01,37.784
33.929,37.728
33.849,37.678
33.77,37.632
33.694,37.59
33.62,37.551
33.552,37.517
33.49,37.485
33.433,37.455
33.384,37.426
33.34,37.396
33.302,37.364
33.269,37.33
33.24,37.295
33.213,37.258
33.187,37.219
33.16,37.179
33.133,37.138
33.103,37.097
33.069,37.055
33.032,37.012
32.991,36.966
32.947,36.917
32.9,36.866
32.85,36.812
32.799,36.757
32.749,36.699
32.7,36.639
32.654,36.576
32.611,36.51
32.572,36.441
32.535,36.37
32.503,36.297
32.473,36.223
32.447,36.148
32.424,36.074
32.402,35.999
32.382,35.923
32.363,35.848
32.344,35.773
32.324,35.698
32.303,35.625
32.281,35.551
32.257,35.477
32.232,35.402
32.204,35.327
32.175,35.251
32.144,35.174
32.113,35.098
32.082,35.021
32.051,34.946
32.019,34.871
31.986,34.798
31.954,34.726
31.924,34.655
31.897,34.586
31.874,34.519
31.859,34.453
31.853,34.389
31.858,34.326
31.878,34.263
31.916,34.202
31.974,34.141
32.055,34.082
32.161,34.023
32.296,33.964
32.461,33.904
32.657,33.843
32.884,33.78
33.142,33.717
33.429,33.655
33.742,33.594
34.079,33.535
34.436,33.477
34.809,33.423
35.194,33.372
35.585,33.325
35.977,33.28
36.367,33.236
36.75,33.194
37.123,33.152
37.482,33.111
37.823,33.07
38.144,33.029
38.441,32.99
38.713,32.953
38.957,32.917
39.172,32.882
39.359,32.848
39.517,32.815
39.646,32.781
39.748,32.749
39.824,32.717
39.875,32.686
39.905,32.656
39.914,32.629
39.905,32.604
39.881,32.581
39.843,32.559
39.795,32.539
39.738,32.519
39.675,32.499
39.607,32.479
39.536,32.458
39.462,32.437
39.386,32.415
39.308,32.393
39.229,32.372
39.149,32.352
39.069,32.334
38.99,32.316
38.912,32.3
38.834,32.285
38.757,32.271
38.679,32.257
38.601,32.245
38.522,32.233
38.442,32.223
38.361,32.211
38.278,32.199
38.192,32.185
38.104,32.17
38.013,32.153
37.919,32.136
37.824,32.116
37.728,32.096
37.631,32.075
37.535,32.055
37.439,32.034
37.346,32.014
37.254,31.994
37.165,31.974
37.08,31.954
37,31.933
36.925,31.911
36.855,31.887
36.79,31.862
36.73,31.835
36.676,31.806
36.627,31.777
36.583,31.746
36.542,31.716
36.505,31.685
36.471,31.655
36.441,31.625
36.415,31.594
36.393,31.564
36.374,31.535
36.358,31.506
36.344,31.477
36.331,31.449
36.319,31.422
36.307,31.397
36.294,31.374
36.28,31.353
36.264,31.334
36.248,31.319
36.23,31.31
36.211,31.309
36.19,31.319
36.169,31.344
36.146,31.386
36.119,31.452
36.09,31.545
36.057,31.669
36.02,31.827
35.98,32.023
35.937,32.257
35.891,32.53
35.843,32.842
35.794,33.19
35.743,33.573
35.692,33.988
35.641,34.432
35.59,34.901
35.541,35.39
35.492,35.894
35.444,36.406
35.395,36.921
35.346,37.432
35.296,37.935
35.244,38.423
35.189,38.893
35.131,39.339
35.071,39.757
35.007,40.142
34.939,40.494
34.867,40.81
34.79,41.092
34.711,41.338
34.628,41.548
34.544,41.723
34.46,41.865
34.376,41.973
34.294,42.052
34.214,42.104
34.136,42.13
34.063,42.133
33.994,42.116
33.93,42.081
33.871,42.031
33.815,41.966
33.764,41.889
33.715,41.802
33.669,41.706
33.625,41.604
33.581,41.497
33.539,41.388
33.497,41.278
33.457,41.167
33.416,41.058
33.376,40.951
33.335,40.846
33.293,40.743
33.251,40.643
33.208,40.544
33.165,40.448
33.122,40.353
33.08,40.26
33.039,40.168
32.999,40.076
32.961,39.984
32.926,39.891
32.893,39.794
32.863,39.694
32.836,39.59
32.813,39.482
32.792,39.372
32.773,39.259
32.756,39.144
32.738,39.026
32.719,38.905
32.697,38.784
32.671,38.663
32.643,38.541
32.613,38.422
32.58,38.304
32.545,38.189
32.509,38.077
32.472,37.97
32.436,37.867
32.4,37.771
32.364,37.682
32.329,37.601
32.295,37.53
32.261,37.467
32.228,37.413
32.196,37.364
32.166,37.322
32.137,37.283
32.112,37.248
32.092,37.216
32.08,37.188
32.078,37.162
32.09,37.139
32.12,37.119
32.172,37.099
32.247,37.081
32.348,37.061
32.478,37.041
32.638,37.019
32.828,36.995
33.049,36.97
33.298,36.944
33.576,36.917
33.88,36.888
34.208,36.858
34.557,36.826
34.924,36.791
35.306,36.754
35.699,36.713
36.098,36.669
36.5,36.619
36.9,36.566
37.294,36.507
37.678,36.445
38.049,36.379
38.401,36.311
38.731,36.241
39.037,36.172
39.315,36.102
39.563,36.032
39.781,35.963
39.967,35.893
40.123,35.822
40.249,35.751
40.346,35.678
40.417,35.605
40.462,35.532
40.484,35.459
40.485,35.386
40.467,35.313
40.432,35.241
40.382,35.17
40.321,35.1
40.25,35.033
40.172,34.968
40.088,34.906
40,34.847
39.909,34.79
39.816,34.734
39.72,34.677
39.622,34.62
39.525,34.562
39.428,34.502
39.332,34.442
39.237,34.381
39.143,34.32
39.051,34.261
38.961,34.203
38.871,34.146
38.781,34.09
38.691,34.034
38.6,33.978
38.507,33.922
38.411,33.866
38.313,33.81
38.211,33.754
38.107,33.7
37.998,33.647
37.888,33.596
37.775,33.548
37.663,33.501
37.551,33.456
37.44,33.412
37.333,33.371
37.231,33.331
37.134,33.294
37.045,33.258
36.964,33.223
36.891,33.189
36.827,33.154
36.77,33.119
36.722,33.083
36.681,33.045
36.647,33.006
36.621,32.967
36.601,32.928
36.585,32.89
36.574,32.853
36.567,32.82
36.563,32.789
36.561,32.76
36.561,32.733
36.562,32.706
36.563,32.679
36.565,32.651
36.565,32.623
36.563,32.593
36.558,32.563
36.55,32.532
36.537,32.502
36.519,32.474
36.496,32.448
36.468,32.424
36.434,32.403
36.395,32.384
36.35,32.368
36.301,32.353
36.249,32.338
36.195,32.324
36.139,32.309
36.082,32.294
36.025,32.277
35.968,32.258
35.912,32.236
35.859,32.212
35.808,32.184
35.759,32.155
35.714,32.122
35.671,32.088
35.631,32.053
35.592,32.019
35.553,31.986
35.515,31.956
35.474,31.928
35.431,31.904
35.383,31.884
35.331,31.87
35.273,31.861
35.211,31.857
35.144,31.861
35.073,31.873
34.998,31.899
34.921,31.94
34.841,32.001
34.759,32.086
34.677,32.197
34.596,32.34
34.515,32.517
34.437,32.729
34.361,32.98
34.287,33.269
34.217,33.596
34.15,33.96
34.087,34.357
34.028,34.784
33.972,35.236
33.92,35.706
33.871,36.189
33.826,36.679
33.785,37.169
33.745,37.655
33.709,38.129
33.675,38.588
33.643,39.025
33.613,39.435
33.583,39.815
33.552,40.163
33.522,40.477
33.489,40.756
33.456,41
33.422,41.208
33.387,41.382
33.353,41.521
33.318,41.628
33.284,41.703
33.251,41.75
33.218,41.77
33.187,41.767
33.156,41.745
33.126,41.706
33.096,41.652
33.067,41.585
33.039,41.507
33.01,41.42
32.981,41.326
32.952,41.227
32.922,41.124
32.891,41.019
32.858,40.913
32.824,40.807
32.787,40.703
32.747,40.6
32.706,40.5
32.664,40.401
32.621,40.304
32.578,40.208
32.537,40.113
32.498,40.018
32.463,39.923
32.432,39.827
32.407,39.731
32.39,39.635
32.382,39.539
32.387,39.441
32.407,39.341
32.445,39.237
32.503,39.128
32.585,39.014
32.692,38.895
32.828,38.771
32.993,38.641
33.188,38.507
33.413,38.369
33.668,38.23
33.95,38.089
34.258,37.95
34.59,37.812
34.943,37.676
35.315,37.544
35.702,37.415
36.1,37.292
36.506,37.176
36.914,37.068
37.32,36.97
37.718,36.882
38.104,36.805
38.473,36.74
38.821,36.684
39.144,36.637
39.439,36.598
39.704,36.565
39.936,36.538
40.133,36.516
40.297,36.497
40.428,36.48
40.526,36.464
40.594,36.449
40.634,36.433
40.649,36.416
40.642,36.397
40.616,36.376
40.575,36.353
40.521,36.33
40.458,36.306
40.386,36.281
40.306,36.256
40.22,36.229
40.129,36.202
40.033,36.174
39.933,36.145
39.829,36.115
39.721,36.084
39.61,36.051
39.495,36.015
39.376,35.975
39.254,35.929
39.129,35.878
39.003,35.819
38.875,35.753
38.748,35.68
38.621,35.601
38.495,35.516
38.372,35.427
38.251,35.334
38.133,35.237
38.019,35.137
37.908,35.035
37.798,34.937
37.69,34.849
37.584,34.77
37.478,34.702
37.373,34.644
37.269,34.598
37.168,34.561
37.07,34.53
36.977,34.5
36.889,34.469
36.807,34.433
36.732,34.392
36.665,34.343
36.606,34.288
36.556,34.226
36.514,34.159
36.481,34.085
36.456,34.007
36.44,33.924
36.432,33.837
36.43,33.748
36.435,33.657
36.445,33.567
36.458,33.478
36.474,33.394
36.492,33.316
36.511,33.243
36.529,33.178
36.546,33.12
36.559,33.067
36.569,33.02
36.575,32.977
36.575,32.938
36.57,32.901
36.558,32.865
36.541,32.83
36.517,32.795
36.488,32.76
36.452,32.724
36.412,32.687
36.367,32.648
36.319,32.607
36.269,32.564
36.217,32.521
36.164,32.478
36.112,32.437
36.059,32.399
36.007,32.364
35.954,32.333
35.902,32.307
35.85,32.285
35.799,32.266
35.747,32.249
35.695,32.232
35.642,32.215
35.588,32.196
35.533,32.176
35.476,32.155
35.418,32.134
35.359,32.114
35.297,32.096
35.234,32.078
35.168,32.062
35.101,32.048
35.033,32.034
34.963,32.022
34.892,32.01
34.821,31.998
34.749,31.985
34.677,31.972
34.606,31.959
34.536,31.945
34.468,31.93
34.401,31.913
34.338,31.895
34.278,31.875
34.221,31.854
34.167,31.832
34.116,31.808
34.068,31.785
34.02,31.761
33.972,31.737
33.924,31.714
33.876,31.69
33.829,31.668
33.782,31.646
33.737,31.626
33.692,31.605
33.65,31.585
33.61,31.564
33.572,31.544
33.537,31.522
33.505,31.499
33.474,31.476
33.446,31.455
33.419,31.436
33.393,31.423
33.367,31.417
33.34,31.423
33.312,31.444
33.282,31.484
33.251,31.55
33.218,31.644
33.182,31.772
33.145,31.936
33.107,32.14
33.066,32.383
33.025,32.667
32.984,32.991
32.944,33.352
32.905,33.751
32.867,34.183
32.831,34.645
32.795,35.131
32.762,35.637
32.732,36.155
32.705,36.679
32.682,37.204
32.667,37.722
32.661,38.227
32.668,38.714
32.691,39.176
32.734,39.609
32.797,40.011
32.887,40.38
33.003,40.714
33.149,41.014
33.326,41.279
33.534,41.507
33.775,41.7
34.047,41.859
34.348,41.987
34.675,42.084
35.025,42.154
35.394,42.199
35.777,42.221
36.17,42.222
36.568,42.203
36.967,42.167
37.362,42.117
37.749,42.053
38.121,41.98
38.477,41.897
38.811,41.808
39.12,41.714
39.403,41.617
39.658,41.518
39.883,41.418
40.078,41.317
40.242,41.216
40.376,41.115
40.481,41.015
40.557,40.917
40.607,40.822
40.632,40.729
40.635,40.639
40.617,40.551
40.582,40.465
40.531,40.38
40.467,40.294
40.391,40.207
40.304,40.118
40.209,40.024
40.107,39.927
40,39.825
39.888,39.718
39.774,39.605
39.659,39.485
39.543,39.359
39.427,39.226
39.311,39.088
39.196,38.947
39.08,38.804
38.964,38.661
38.847,38.52
38.729,38.382
38.609,38.247
38.488,38.117
38.365,37.991
38.241,37.871
38.114,37.757
37.985,37.649
37.855,37.548
37.724,37.454
37.593,37.368
37.463,37.29
37.336,37.22
37.212,37.158
37.093,37.104
36.98,37.059
36.874,37.021
36.776,36.99
36.686,36.962
36.606,36.936
36.535,36.911
36.475,36.885
36.426,36.857
36.386,36.828
36.355,36.797
36.333,36.766
36.316,36.735
36.306,36.703
36.3,36.671
36.297,36.637
36.297,36.6
36.301,36.561
36.306,36.519
36.313,36.475
36.322,36.427
36.333,36.378
36.345,36.326
36.357,36.27
36.369,36.213
36.381,36.152
36.391,36.091
36.4,36.027
36.406,35.962
36.409,35.895
36.407,35.825
36.4,35.754
36.386,35.68
36.364,35.604
36.333,35.525
36.293,35.443
36.244,35.36
36.188,35.275
36.125,35.189
36.056,35.104
35.982,35.019
35.906,34.935
35.829,34.852
35.752,34.771
35.676,34.691
35.603,34.611
35.533,34.53
35.467,34.449
35.405,34.369
35.346,34.289
35.291,34.209
35.237,34.131
35.185,34.054
35.133,33.979
35.079,33.907
35.025,33.838
34.969,33.773
34.912,33.711
34.854,33.652
34.793,33.597
34.73,33.543
34.666,33.49
34.599,33.436
34.53,33.381
34.459,33.326
34.387,33.269
34.313,33.213
34.239,33.156
34.166,33.101
34.094,33.048
34.025,32.998
33.96,32.95
33.899,32.905
33.842,32.862
33.791,32.82
33.745,32.779
33.705,32.739
33.668,32.698
33.635,32.658
33.603,32.617
33.573,32.577
33.543,32.538
33.512,32.498
33.478,32.459
33.443,32.421
33.405,32.384
33.366,32.349
33.324,32.316
33.281,32.284
33.238,32.255
33.196,32.228
33.156,32.205
33.121,32.186
33.09,32.17
33.064,32.157
33.042,32.145
33.023,32.134
33.008,32.121
32.994,32.106
32.982,32.089
32.97,32.07
32.959,32.049
32.948,32.027
32.935,32.005
32.92,31.982
32.904,31.96
32.887,31.94
32.868,31.921
32.85,31.904
32.833,31.888
32.82,31.872
32.814,31.856
32.819,31.839
32.838,31.823
32.875,31.806
32.936,31.789
33.023,31.771
33.141,31.751
33.293,31.73
33.48,31.707
33.705,31.681
33.966,31.654
34.263,31.626
34.593,31.597
34.953,31.568
35.338,31.541
35.744,31.514
36.163,31.49
36.591,31.466
37.021,31.441
37.448,31.415
37.866,31.385
38.271,31.352
38.657,31.316
39.022,31.277
39.362,31.237
39.674,31.197
39.956,31.157
40.207,31.12
40.428,31.087
40.617,31.061
40.775,31.045
40.904,31.04
41.004,31.049
41.076,31.075
41.123,31.121
41.146,31.191
41.147,31.287
41.129,31.414
41.094,31.574
41.045,31.769
40.984,31.999
40.915,32.266
40.838,32.57
40.755,32.912
40.669,33.291
40.581,33.704
40.49,34.149
40.396,34.622
40.302,35.117
40.206,35.63
40.11,36.153
40.012,36.681
39.911,37.205
39.809,37.719
39.705,38.219
39.6,38.698
39.492,39.151
39.384,39.577
39.273,39.971
39.161,40.331
39.047,40.656
38.931,40.942
38.814,41.192
38.696,41.405
38.578,41.582
38.461,41.726
38.346,41.838
38.233,41.921
38.123,41.976
38.016,42.005
37.913,42.012
37.816,41.998
37.723,41.966
37.636,41.92
37.554,41.86
37.478,41.791
37.408,41.713
37.343,41.628
37.284,41.539
37.23,41.445
37.181,41.349
37.137,41.25
37.097,41.149
37.06,41.048
37.026,40.948
36.996,40.85
36.969,40.754
36.947,40.661
36.928,40.57
36.914,40.482
36.904,40.396
36.897,40.311
36.892,40.227
36.886,40.142
36.88,40.057
36.871,39.971
36.859,39.884
36.843,39.796
36.823,39.707
36.8,39.615
36.772,39.52
36.741,39.42
36.705,39.314
36.666,39.203
36.624,39.086
36.579,38.964
36.53,38.838
36.48,38.709
36.428,38.578
36.375,38.446
36.32,38.316
36.263,38.188
36.203,38.062
36.142,37.939
36.078,37.819
36.011,37.703
35.942,37.593
35.871,37.489
35.797,37.392
35.721,37.303
35.643,37.222
35.563,37.149
35.482,37.083
35.399,37.025
35.317,36.972
35.235,36.923
35.156,36.878
35.079,36.835
35.005,36.795
34.934,36.757
34.866,36.719
34.8,36.682
34.736,36.645
34.672,36.609
34.608,36.573
34.543,36.538
34.475,36.502
34.405,36.464
34.333,36.425
34.261,36.383
34.188,36.339
34.116,36.293
34.045,36.243
33.978,36.19
33.914,36.135
33.854,36.077
33.799,36.017
33.75,35.955
33.706,35.891
33.666,35.826
33.631,35.758
33.6,35.689
33.571,35.618
33.543,35.545
33.515,35.469
33.488,35.392
33.459,35.313
33.43,35.233
33.399,35.153
33.367,35.073
33.335,34.996
33.301,34.92
33.268,34.846
33.235,34.774
33.202,34.703
33.169,34.632
33.134,34.562
33.097,34.49
33.059,34.417
33.02,34.343
32.981,34.269
32.94,34.196
32.9,34.123
32.86,34.051
32.821,33.98
32.782,33.911
32.746,33.843
32.712,33.778
32.681,33.714
32.653,33.651
32.63,33.591
32.61,33.532
32.595,33.475
32.586,33.419
32.584,33.362
32.592,33.305
32.612,33.246
32.646,33.185
32.696,33.123
32.767,33.06
32.859,32.997
32.977,32.936
33.122,32.876
33.298,32.819
33.506,32.764
33.749,32.711
34.027,32.661
34.337,32.612
34.68,32.565
35.051,32.518
35.448,32.471
35.864,32.425
36.296,32.38
36.737,32.336
37.182,32.292
37.624,32.249
38.058,32.207
38.48,32.166
38.884,32.127
39.265,32.089
39.619,32.054
39.943,32.02
40.235,31.988
40.492,31.957
40.715,31.927
40.904,31.899
41.061,31.871
41.186,31.844
41.283,31.815
41.354,31.785
41.401,31.754
41.428,31.721
41.437,31.687
41.431,31.654
41.413,31.621
41.384,31.591
41.345,31.563
41.298,31.538
41.243,31.516
41.18,31.497
41.111,31.479
41.035,31.461
40.953,31.442
40.866,31.422
40.775,31.399
40.688,31.375
40.609,31.35
40.536,31.325
40.469,31.301
40.405,31.277
40.339,31.255
40.265,31.233
40.174,31.211
40.067,31.191
39.945,31.172
39.811,31.154
39.669,31.139
39.522,31.124
39.374,31.11
39.227,31.097
39.081,31.083
38.939,31.069
38.807,31.053
38.686,31.034
38.58,31.013
38.488,30.99
38.407,30.963
38.332,30.934
38.26,30.902
38.189,30.87
38.118,30.837
38.046,30.805
37.973,30.772
37.901,30.741
37.828,30.711
37.757,30.684
37.689,30.662
37.623,30.646
37.561,30.637
37.502,30.639
37.448,30.654
37.397,30.685
37.35,30.734
37.306,30.803
37.266,30.895
37.229,31.014
37.195,31.162
37.162,31.341
37.129,31.555
37.095,31.805
37.059,32.092
37.022,32.415
36.982,32.774
36.94,33.165
36.896,33.584
36.851,34.027
36.806,34.487
36.763,34.961
36.722,35.442
36.684,35.925
36.647,36.403
36.612,36.872
36.577,37.326
36.542,37.76
36.507,38.17
36.47,38.551
36.431,38.902
36.39,39.221
36.344,39.508
36.293,39.761
36.237,39.982
36.175,40.17
36.106,40.328
36.028,40.456
35.943,40.556
35.851,40.63
35.754,40.68
35.653,40.708
35.55,40.717
35.447,40.708
35.345,40.685
35.247,40.648
35.155,40.602
35.067,40.549
34.986,40.49
34.911,40.426
34.841,40.358
34.775,40.285
34.713,40.209
34.653,40.13
34.593,40.05
34.533,39.97
34.472,39.889
34.41,39.81
34.347,39.733
34.284,39.659
34.219,39.588
34.152,39.519
34.084,39.452
34.014,39.384
33.946,39.315
33.878,39.244
33.812,39.17
33.749,39.094
33.69,39.013
33.636,38.928
33.589,38.837
33.546,38.742
33.508,38.641
33.475,38.533
33.446,38.419
33.42,38.3
33.396,38.175
33.374,38.047
33.352,37.916
33.33,37.784
33.306,37.653
33.28,37.524
33.25,37.396
33.217,37.272
33.179,37.151
33.136,37.034
33.09,36.923
33.039,36.817
32.985,36.716
32.929,36.621
32.873,36.533
32.818,36.452
32.765,36.379
32.715,36.312
32.67,36.25
32.628,36.193
32.592,36.14
32.56,36.091
32.531,36.046
32.507,36.003
32.485,35.963
32.464,35.926
32.443,35.892
32.421,35.861
32.399,35.833
32.375,35.808
32.351,35.784
32.327,35.761
32.306,35.738
32.288,35.713
32.276,35.687
32.273,35.657
32.279,35.624
32.299,35.587
32.336,35.547
32.393,35.503
32.474,35.456
32.582,35.405
32.722,35.351
32.894,35.295
33.102,35.237
33.346,35.178
33.625,35.118
33.939,35.057
34.283,34.995
34.654,34.93
35.049,34.863
35.462,34.793
35.889,34.72
36.325,34.644
36.763,34.567
37.197,34.488
37.623,34.41
38.033,34.332
38.425,34.255
38.794,34.178
39.138,34.101
39.455,34.024
39.743,33.947
40.001,33.871
40.229,33.796
40.426,33.722
40.595,33.648
40.735,33.576
40.848,33.506
40.935,33.438
40.997,33.371
41.038,33.304
41.058,33.239
41.057,33.174
41.039,33.11
41.004,33.046
40.953,32.982
40.887,32.917
40.809,32.853
40.721,32.788
40.624,32.721
40.522,32.653
40.417,32.585
40.31,32.519
40.203,32.455
40.099,32.395
39.998,32.339
39.9,32.288
39.807,32.241
39.717,32.199
39.63,32.16
39.544,32.122
39.459,32.086
39.374,32.049
39.29,32.013
39.204,31.978
39.116,31.943
39.025,31.909
38.931,31.875
38.832,31.843
38.728,31.812
38.62,31.78
38.507,31.749
38.389,31.718
38.268,31.688
38.145,31.659
38.024,31.631
37.905,31.605
37.79,31.582
37.681,31.56
37.58,31.539
37.488,31.52
37.406,31.501
37.333,31.483
37.268,31.464
37.211,31.444
37.159,31.421
37.111,31.395
37.066,31.367
37.022,31.337
36.98,31.308
36.938,31.281
36.897,31.257
36.856,31.236
36.816,31.22
36.776,31.209
36.736,31.203
36.696,31.199
36.655,31.198
36.615,31.198
36.575,31.199
36.535,31.199
36.496,31.199
36.457,31.196
36.421,31.192
36.387,31.186
36.354,31.176
36.323,31.157
36.292,31.128
36.26,31.09
36.228,31.046
36.195,30.997
36.162,30.948
36.129,30.902
36.094,30.859
36.057,30.822
36.016,30.791
35.97,30.766
35.917,30.747
35.856,30.732
35.785,30.721
35.704,30.713
35.614,30.707
35.516,30.702
35.412,30.698
35.305,30.692
35.195,30.686
35.086,30.679
34.978,30.67
34.874,30.659
34.775,30.645
34.683,30.628
34.597,30.608
34.52,30.588
34.449,30.569
34.385,30.554
34.327,30.545
34.274,30.547
34.225,30.561
34.177,30.591
34.13,30.641
34.082,30.714
34.032,30.813
33.981,30.941
33.927,31.102
33.87,31.297
33.811,31.529
33.75,31.798
33.687,32.104
33.624,32.442
33.56,32.812
33.497,33.209
33.435,33.629
33.375,34.068
33.317,34.521
33.262,34.981
33.21,35.443
33.16,35.903
33.112,36.356
33.066,36.797
33.022,37.221
32.98,37.625
32.939,38.004
32.899,38.357
32.86,38.682
32.819,38.976
32.778,39.239
32.736,39.471
32.692,39.672
32.646,39.841
32.599,39.982
32.552,40.095
32.505,40.183
32.46,40.246
32.418,40.287
32.379,40.307
32.345,40.31
32.316,40.297
32.291,40.27
32.27,40.233
32.252,40.185
32.238,40.13
32.225,40.067
32.213,39.998
32.201,39.925
32.188,39.85
32.174,39.772
32.16,39.693
32.143,39.613
32.126,39.532
32.106,39.45
32.083,39.368
32.057,39.284
32.029,39.2
31.997,39.115
31.962,39.03
31.924,38.946
31.884,38.862
31.844,38.778
31.805,38.692
31.767,38.605
31.732,38.516
31.701,38.424
31.676,38.329
31.656,38.232
31.642,38.131
31.634,38.026
31.632,37.917
31.635,37.804
31.644,37.687
31.661,37.567
31.685,37.446
31.72,37.324
31.769,37.203
31.834,37.084
31.919,36.969
32.028,36.858
32.164,36.753
32.331,36.655
32.531,36.564
32.766,36.482
33.037,36.408
33.342,36.343
33.679,36.286
34.047,36.237
34.441,36.193
34.857,36.155
35.29,36.121
35.734,36.092
36.184,36.067
36.634,36.045
37.079,36.026
37.513,36.01
37.931,35.995
38.327,35.982
38.697,35.968
39.037,35.953
39.345,35.937
39.619,35.918
39.858,35.896
40.062,35.871
40.231,35.842
40.366,35.81
40.469,35.775
40.542,35.736
40.586,35.694
40.606,35.647
40.603,35.597
40.582,35.544
40.544,35.49
40.493,35.434
40.43,35.377
40.36,35.321
40.283,35.263
40.203,35.205
40.12,35.145
40.036,35.084
39.951,35.022
39.865,34.96
39.779,34.897
39.69,34.834
39.599,34.77
39.504,34.704
39.406,34.637
39.302,34.569
39.194,34.5
39.081,34.429
38.965,34.357
38.846,34.283
38.724,34.208
38.601,34.134
38.477,34.06
38.352,33.986
38.228,33.913
38.106,33.841
37.985,33.769
37.866,33.698
37.75,33.629
37.636,33.562
37.526,33.497
37.419,33.435
37.317,33.377
37.219,33.321
37.125,33.268
37.036,33.217
36.951,33.167
36.87,33.118
36.791,33.07
36.715,33.022
36.642,32.973
36.571,32.925
36.503,32.876
36.439,32.828
36.378,32.779
36.322,32.731
36.27,32.682
36.222,32.633
36.179,32.585
36.14,32.539
36.104,32.494
36.071,32.451
36.04,32.41
36.01,32.37
35.979,32.333
35.947,32.296
35.912,32.262
35.874,32.228
35.832,32.197
35.786,32.168
35.735,32.141
35.679,32.116
35.617,32.091
35.55,32.068
35.476,32.044
35.398,32.02
35.314,31.995
35.226,31.968
35.136,31.94
35.045,31.912
34.953,31.885
34.862,31.859
34.773,31.834
34.685,31.81
34.599,31.788
34.515,31.767
34.431,31.747
34.348,31.727
34.265,31.707
34.181,31.686
34.098,31.666
34.013,31.645
33.925,31.624
33.835,31.604
33.743,31.585
33.648,31.567
33.551,31.549
33.453,31.531
33.355,31.512
33.258,31.491
33.164,31.47
33.074,31.448
32.986,31.424
32.902,31.398
32.821,31.372
32.745,31.345
32.671,31.319
32.601,31.294
32.533,31.27
32.467,31.246
32.404,31.222
32.344,31.198
32.286,31.173
32.23,31.146
32.177,31.119
32.124,31.092
32.074,31.065
32.023,31.039
31.973,31.013
31.92,30.989
31.867,30.966
31.812,30.945
31.756,30.925
31.701,30.908
31.646,30.895
31.593,30.886
31.544,30.886
31.499,30.897
31.459,30.922
31.425,30.966
31.395,31.031
31.372,31.122
31.354,31.242
31.339,31.393
31.326,31.575
31.313,31.791
31.3,32.041
31.284,32.324
31.266,32.64
31.243,32.988
31.217,33.364
31.188,33.766
31.156,34.188
31.123,34.626
31.088,35.077
31.054,35.536
31.022,35.995
30.993,36.451
30.967,36.898
30.946,37.332
30.93,37.749
30.918,38.144
30.912,38.513
30.911,38.853
30.913,39.163
30.919,39.443
30.927,39.691
30.937,39.908
30.947,40.093
30.957,40.248
30.965,40.375
30.973,40.475
30.98,40.55
30.985,40.605
30.99,40.64
30.993,40.657
30.994,40.658
30.995,40.644
30.994,40.618
30.991,40.581
30.986,40.535
30.977,40.48
30.964,40.419
30.948,40.35
30.928,40.276
30.904,40.198
30.878,40.117
30.85,40.034
30.821,39.951
30.793,39.867
30.766,39.783
30.742,39.7
30.723,39.617
30.709,39.535
30.703,39.454
30.707,39.375
30.722,39.297
30.75,39.22
30.793,39.144
30.854,39.069
30.933,38.994
31.034,38.917
31.16,38.839
31.311,38.757
31.492,38.67
31.703,38.579
31.944,38.482
32.216,38.378
32.518,38.269
32.851,38.155
33.212,38.036
33.598,37.914
34.007,37.792
34.434,37.669
34.875,37.548
35.326,37.429
35.782,37.312
36.239,37.2
36.691,37.093
37.134,36.993
37.563,36.9
37.974,36.815
38.363,36.738
38.726,36.668
39.062,36.606
39.366,36.551
39.638,36.502
39.877,36.459
40.081,36.421
40.25,36.387
40.385,36.356
40.487,36.328
40.556,36.3
40.594,36.273
40.603,36.245
40.586,36.214
40.546,36.182
40.486,36.147
40.409,36.111
40.319,36.073
40.221,36.035
40.116,35.996
40.008,35.956
39.899,35.914
39.79,35.871
39.683,35.827
39.577,35.784
39.473,35.74
39.37,35.696
39.267,35.651
39.164,35.605
39.06,35.558
38.955,35.509
38.848,35.459
38.739,35.408
38.629,35.356
38.518,35.303
38.405,35.247
38.292,35.19
38.178,35.13
38.064,35.068
37.952,35.003
37.842,34.935
37.733,34.863
37.628,34.79
37.525,34.714
37.426,34.637
37.33,34.56
37.239,34.482
37.152,34.404
37.07,34.328
36.992,34.254
36.918,34.183
36.847,34.115
36.78,34.05
36.715,33.987
36.654,33.925
36.595,33.865
36.539,33.806
36.487,33.748
36.439,33.69
36.396,33.633
36.359,33.578
36.327,33.523
36.302,33.469
36.282,33.415
36.268,33.361
36.26,33.307
36.256,33.253
36.257,33.198
36.26,33.143
36.264,33.087
36.269,33.031
36.272,32.976
36.271,32.923
36.265,32.87
36.252,32.819
36.232,32.767
36.204,32.716
36.167,32.664
36.121,32.612
36.066,32.559
36.004,32.508
35.936,32.458
35.864,32.411
35.789,32.368
35.713,32.327
35.637,32.291
35.562,32.256
35.488,32.223
35.416,32.191
35.346,32.159
35.278,32.127
35.212,32.096
35.148,32.064
35.086,32.033
35.024,32.003
34.963,31.973
34.902,31.943
34.84,31.914
34.776,31.885
34.71,31.856
34.642,31.827
34.57,31.797
34.496,31.769
34.42,31.742
34.34,31.717
34.259,31.694
34.177,31.672
34.096,31.652
34.015,31.634
33.936,31.617
33.859,31.6
33.786,31.585
33.716,31.57
33.65,31.555
33.588,31.54
33.531,31.526
33.478,31.513
33.429,31.5
33.383,31.488
33.34,31.476
33.3,31.463
33.261,31.45
33.222,31.435
33.183,31.419
33.142,31.402
33.099,31.385
33.055,31.365
33.008,31.345
32.96,31.323
32.909,31.301
32.858,31.279
32.809,31.256
32.761,31.232
32.717,31.208
32.676,31.184
32.639,31.159
32.606,31.134
32.579,31.109
32.555,31.083
32.537,31.059
32.522,31.037
32.51,31.017
32.501,31
32.493,30.987
32.487,30.981
32.48,30.982
32.473,30.994
32.465,31.019
32.454,31.062
32.44,31.125
32.423,31.215
32.403,31.333
32.378,31.483
32.349,31.667
32.316,31.885
32.28,32.138
32.243,32.426
32.206,32.748
32.171,33.103
32.138,33.486
32.108,33.896
32.083,34.326
32.061,34.773
32.044,35.231
32.03,35.695
32.018,36.161
32.008,36.624
31.999,37.078
31.989,37.52
31.977,37.944
31.962,38.348
31.944,38.727
31.923,39.079
31.899,39.401
31.873,39.693
31.844,39.954
31.811,40.183
31.775,40.381
31.735,40.548
31.691,40.686
31.645,40.797
31.598,40.882
31.552,40.944
31.51,40.985
31.472,41.007
31.441,41.012
31.418,41.003
31.406,40.98
31.406,40.945
31.422,40.901
31.456,40.848
31.512,40.789
31.592,40.722
31.7,40.651
31.839,40.575
32.011,40.498
32.218,40.42
32.461,40.343
32.741,40.266
33.055,40.19
33.403,40.114
33.779,40.039
34.182,39.964
34.605,39.891
35.044,39.819
35.493,39.747
35.946,39.674
36.398,39.599
36.843,39.521
37.275,39.441
37.689,39.358
38.081,39.272
38.448,39.184
38.788,39.092
39.097,38.998
39.376,38.899
39.622,38.797
39.835,38.691
40.016,38.581
40.164,38.468
40.282,38.354
40.369,38.24
40.428,38.126
40.46,38.013
40.465,37.9
40.448,37.789
40.408,37.68
40.35,37.573
40.275,37.47
40.188,37.372
40.091,37.278
39.986,37.19
39.876,37.108
39.766,37.032
39.655,36.96
39.546,36.893
39.44,36.833
39.335,36.78
39.232,36.732
39.13,36.691
39.029,36.655
38.926,36.622
38.823,36.592
38.717,36.564
38.608,36.537
38.497,36.512
38.383,36.486
38.266,36.46
38.146,36.432
38.023,36.403
37.897,36.371
37.769,36.338
37.642,36.302
37.516,36.264
37.392,36.223
37.272,36.178
37.156,36.13
37.045,36.078
36.94,36.024
36.841,35.966
36.749,35.906
36.663,35.845
36.583,35.782
36.508,35.718
36.44,35.652
36.377,35.585
36.32,35.515
36.268,35.444
36.222,35.372
36.181,35.298
36.146,35.224
36.117,35.149
36.094,35.074
36.077,34.998
36.065,34.922
36.058,34.845
36.055,34.766
36.054,34.688
36.054,34.609
36.055,34.531
36.054,34.454
36.052,34.379
36.049,34.306
36.043,34.235
36.037,34.164
36.029,34.095
36.02,34.027
36.01,33.96
35.999,33.893
35.984,33.827
35.967,33.763
35.945,33.699
35.919,33.638
35.888,33.579
35.852,33.521
35.81,33.464
35.762,33.408
35.708,33.352
35.649,33.298
35.584,33.244
35.514,33.192
35.438,33.14
35.357,33.088
35.272,33.037
35.184,32.986
35.092,32.935
34.999,32.885
34.905,32.837
34.811,32.789
34.717,32.743
34.625,32.698
34.534,32.655
34.447,32.614
34.364,32.574
34.284,32.535
34.207,32.497
34.134,32.458
34.063,32.42
33.996,32.382
33.932,32.345
33.871,32.31
33.812,32.276
33.756,32.245
33.701,32.216
33.648,32.189
33.597,32.162
33.549,32.136
33.504,32.109
33.462,32.081
33.425,32.054
33.391,32.026
33.36,31.999
33.331,31.973
33.301,31.947
33.274,31.923
33.252,31.9
33.23,31.877
33.203,31.855
33.167,31.834
33.122,31.814
33.068,31.793
33.006,31.772
32.938,31.751
32.867,31.731
32.794,31.711
32.722,31.692
32.652,31.672
32.587,31.651
32.527,31.629
32.475,31.607
32.43,31.585
32.392,31.563
32.362,31.541
32.339,31.521
32.323,31.5
32.312,31.481
32.306,31.461
32.305,31.441
32.306,31.418
32.308,31.393
32.309,31.365
32.305,31.335
32.297,31.302
32.281,31.267
32.258,31.231
32.226,31.195
32.185,31.16
32.136,31.127
32.083,31.096
32.029,31.068
31.975,31.045
31.925,31.026
31.878,31.012
31.839,31.006
31.808,31.008
31.786,31.021
31.773,31.046
31.769,31.086
31.777,31.143
31.796,31.219
31.828,31.317
31.874,31.442
31.935,31.597
32.015,31.784
32.115,32.006
32.24,32.264
32.392,32.559
32.572,32.889
32.783,33.252
33.025,33.644
33.298,34.061
33.603,34.498
33.937,34.949
34.298,35.41
34.684,35.876
35.09,36.341
35.513,36.801
35.948,37.25
36.39,37.684
36.833,38.097
37.271,38.488
37.699,38.853
38.113,39.19
38.507,39.498
38.879,39.774
39.223,40.019
39.538,40.232
39.82,40.416
40.069,40.57
40.284,40.697
40.464,40.796
40.609,40.871
40.721,40.921
40.8,40.949
40.847,40.957
40.865,40.946
40.857,40.92
40.825,40.88
40.772,40.828
40.702,40.765
40.617,40.693
40.519,40.614
40.411,40.53
40.296,40.442
40.177,40.352
40.056,40.263
39.934,40.174
39.813,40.086
39.694,39.999
39.578,39.913
39.466,39.829
39.355,39.747
39.248,39.665
39.141,39.585
39.037,39.505
38.932,39.426
38.825,39.348
38.716,39.269
38.604,39.19
38.489,39.109
38.371,39.024
38.251,38.936
38.128,38.845
38.004,38.75
37.88,38.652
37.755,38.55
37.631,38.445
37.509,38.337
37.389,38.227
37.274,38.116
37.163,38.006
37.058,37.895
36.96,37.786
36.866,37.679
36.778,37.573
36.695,37.47
36.616,37.371
36.541,37.276
36.471,37.186
36.406,37.102
36.347,37.024
36.295,36.953
36.248,36.887
36.208,36.827
36.174,36.771
36.146,36.719
36.123,36.671
36.105,36.628
36.091,36.589
36.082,36.555
36.075,36.524
36.07,36.496
36.067,36.47
36.066,36.446
36.065,36.422
36.065,36.398
36.064,36.373
36.061,36.346
36.054,36.318
36.043,36.288
36.028,36.258
36.007,36.225
35.981,36.191
35.95,36.156
35.912,36.118
35.867,36.08
35.815,36.041
35.756,36.001
35.691,35.96
35.621,35.915
35.546,35.869
35.466,35.82
35.382,35.768
35.294,35.715
35.204,35.659
35.112,35.602
35.019,35.545
34.924,35.487
34.829,35.428
34.734,35.367
34.639,35.305
34.544,35.241
34.449,35.176
34.355,35.111
34.261,35.045
34.17,34.98
34.079,34.915
33.99,34.85
33.904,34.788
33.821,34.728
33.741,34.669
33.666,34.611
33.595,34.556
33.529,34.502
33.468,34.45
33.412,34.397
33.359,34.343
33.31,34.288
33.265,34.231
33.222,34.174
33.182,34.118
33.144,34.062
33.106,34.007
33.069,33.952
33.031,33.898
32.991,33.845
32.948,33.793
32.903,33.74
32.855,33.688
32.805,33.635
32.751,33.582
32.696,33.528
32.638,33.474
32.579,33.42
32.52,33.366
32.462,33.313
32.405,33.262
32.351,33.211
32.301,33.162
32.255,33.115
32.212,33.069
32.172,33.025
32.137,32.984
32.105,32.943
32.077,32.903
32.052,32.864
32.029,32.824
32.008,32.785
31.988,32.746
31.969,32.708
31.95,32.67
31.931,32.635
31.911,32.602
31.888,32.571
31.863,32.543
31.834,32.517
31.801,32.493
31.765,32.47
31.724,32.446
31.682,32.421
31.638,32.395
31.593,32.367
31.549,32.339
31.507,32.312
31.469,32.286
31.435,32.261
31.405,32.238
31.381,32.217
31.364,32.198
31.353,32.179
31.351,32.163
31.36,32.148
31.38,32.134
31.414,32.122
31.462,32.111
31.528,32.099
31.613,32.086
31.722,32.072
31.857,32.056
32.019,32.038
32.213,32.016
32.438,31.993
32.697,31.968
32.99,31.943
33.315,31.92
33.672,31.899
34.058,31.882
34.47,31.871
34.902,31.866
35.35,31.869
35.807,31.882
36.268,31.907
36.726,31.947
37.177,32.003
37.614,32.079
38.034,32.177
38.429,32.301
38.797,32.453
39.133,32.635
39.437,32.849
39.705,33.094
39.938,33.369
40.136,33.674
40.298,34.006
40.426,34.363
40.519,34.74
40.58,35.133
40.613,35.537
40.619,35.948
40.603,36.359
40.567,36.769
40.512,37.171
40.443,37.562
40.36,37.937
40.266,38.292
40.165,38.623
40.057,38.926
39.947,39.201
39.833,39.447
39.719,39.662
39.605,39.846
39.491,40.001
39.379,40.128
39.268,40.229
39.16,40.306
39.053,40.361
38.947,40.397
38.841,40.414
38.735,40.414
38.629,40.4
38.522,40.373
38.414,40.337
38.305,40.292
38.195,40.239
38.084,40.181
37.971,40.117
37.858,40.049
37.743,39.978
37.627,39.904
37.51,39.828
37.392,39.751
37.272,39.674
37.15,39.597
37.028,39.522
36.905,39.447
36.784,39.371
36.664,39.295
36.546,39.217
36.43,39.137
36.317,39.055
36.209,38.97
36.106,38.882
36.011,38.79
35.923,38.692
35.844,38.589
35.773,38.48
35.71,38.366
35.656,38.247
35.609,38.125
35.569,37.999
35.534,37.872
35.502,37.745
35.474,37.62
35.449,37.499
35.425,37.384
35.402,37.275
35.38,37.173
35.357,37.078
35.334,36.99
35.31,36.91
35.284,36.836
35.255,36.769
35.224,36.707
35.19,36.653
35.153,36.605
35.112,36.565
35.068,36.532
35.021,36.505
34.97,36.482
34.915,36.464
34.858,36.449
34.797,36.438
34.732,36.431
34.666,36.427
34.597,36.425
34.526,36.425
34.454,36.425
34.381,36.425
34.307,36.425
34.232,36.424
34.157,36.423
34.081,36.421
34.005,36.418
33.927,36.414
33.849,36.407
33.769,36.397
33.688,36.383
33.604,36.364
33.517,36.341
33.429,36.314
33.338,36.282
33.247,36.245
33.156,36.204
33.065,36.157
32.977,36.098
32.89,36.028
32.807,35.949
32.728,35.864
32.655,35.777
32.586,35.692
32.521,35.611
32.461,35.538
32.405,35.472
32.351,35.415
32.3,35.366
32.251,35.325
32.205,35.29
32.16,35.257
32.116,35.224
32.073,35.19
32.029,35.154
31.985,35.116
31.94,35.074
31.894,35.028
31.847,34.979
31.798,34.926
31.748,34.87
31.696,34.81
31.643,34.747
31.59,34.68
31.538,34.611
31.488,34.539
31.441,34.467
31.398,34.393
31.36,34.32
31.327,34.248
31.298,34.178
31.273,34.112
31.253,34.049
31.235,33.99
31.219,33.935
31.204,33.883
31.19,33.833
31.176,33.785
31.161,33.737
31.147,33.69
31.13,33.641
31.111,33.592
31.088,33.543
31.063,33.495
31.034,33.449
31.002,33.404
30.968,33.363
30.932,33.326
30.895,33.294
30.858,33.265
30.822,33.241
30.787,33.218
30.753,33.197
30.722,33.176
30.694,33.154
30.667,33.131
30.644,33.107
30.623,33.081
30.605,33.056
30.588,33.031
30.573,33.007
30.559,32.986
30.546,32.967
30.533,32.951
30.521,32.938
30.511,32.926
30.503,32.914
30.5,32.902
30.503,32.891
30.515,32.879
30.54,32.867
30.582,32.854
30.645,32.841
30.734,32.828
30.853,32.816
31.006,32.805
31.195,32.796
31.422,32.791
31.688,32.79
31.992,32.796
32.331,32.809
32.703,32.832
33.104,32.868
33.527,32.918
33.969,32.984
34.423,33.07
34.883,33.177
35.343,33.308
35.797,33.465
36.24,33.649
36.667,33.863
37.074,34.106
37.455,34.376
37.808,34.671
38.13,34.989
38.42,35.326
38.674,35.677
38.893,36.038
39.077,36.405
39.228,36.772
39.346,37.136
39.434,37.491
39.494,37.834
39.53,38.161
39.543,38.468
39.537,38.752
39.515,39.01
39.478,39.24
39.429,39.443
39.369,39.617
39.299,39.764
39.222,39.885
39.138,39.981
39.048,40.055
38.954,40.107
38.856,40.14
38.755,40.154
38.653,40.15
38.55,40.13
38.446,40.095
38.344,40.048
38.243,39.992
38.144,39.93
38.049,39.861
37.957,39.786
37.868,39.708
37.781,39.625
37.695,39.541
37.609,39.455
37.523,39.369
37.434,39.282
37.342,39.195
37.247,39.107
37.147,39.019
37.044,38.931
36.937,38.843
36.828,38.754
36.718,38.663
36.606,38.571
36.495,38.475
36.385,38.376
36.277,38.273
36.173,38.165
36.074,38.052
35.982,37.936
35.898,37.817
35.821,37.695
35.751,37.573
35.69,37.45
35.636,37.325
35.59,37.2
35.549,37.076
35.514,36.956
35.484,36.84
35.457,36.731
35.432,36.631
35.41,36.539
35.39,36.456
35.371,36.383
35.353,36.318
35.336,36.26
35.318,36.209
35.301,36.166
35.284,36.131
35.265,36.102
35.245,36.081
35.223,36.066
35.198,36.057
35.17,36.055
35.138,36.057
35.103,36.064
35.065,36.075
35.023,36.089
34.979,36.105
34.932,36.121
34.884,36.136
34.833,36.151
34.781,36.163
34.727,36.174
34.671,36.182
34.612,36.188
34.549,36.191
34.484,36.192
34.414,36.19
34.342,36.184
34.265,36.173
34.186,36.158
34.104,36.138
34.02,36.113
33.936,36.084
33.852,36.051
33.768,36.015
33.686,35.977
33.606,35.938
33.53,35.896
33.458,35.853
33.392,35.807
33.33,35.758
33.274,35.706
33.222,35.651
33.173,35.594
33.127,35.534
33.082,35.473
33.037,35.41
32.993,35.347
32.948,35.283
32.902,35.22
32.854,35.156
32.805,35.091
32.754,35.025
32.699,34.956
32.641,34.886
32.58,34.814
32.516,34.741
32.448,34.668
32.379,34.595
32.309,34.525
32.24,34.457
32.172,34.392
32.108,34.33
32.047,34.271
31.99,34.214
31.938,34.159
31.89,34.105
31.848,34.053
31.81,34.001
31.778,33.95
31.75,33.9
31.724,33.851
31.701,33.804
31.679,33.758
31.657,33.715
31.634,33.675
31.611,33.639
31.585,33.605
31.558,33.574
31.529,33.543
31.497,33.514
31.465,33.484
31.432,33.452
31.398,33.42
31.366,33.385
31.334,33.35
31.303,33.315
31.273,33.281
31.244,33.247
31.217,33.213
31.19,33.181
31.166,33.151
31.143,33.123
31.121,33.097
31.101,33.071
31.083,33.047
31.066,33.023
31.049,33.001
31.032,32.98
31.015,32.958
30.996,32.936
30.976,32.912
30.952,32.889
30.926,32.866
30.896,32.845
30.863,32.826
30.828,32.81
30.792,32.796
30.755,32.782
30.718,32.769
30.683,32.754
30.65,32.739
30.62,32.722
30.594,32.704
30.571,32.685
30.553,32.667
30.541,32.652
30.538,32.643
30.545,32.644
30.564,32.656
30.598,32.683
30.651,32.73
30.726,32.799
30.826,32.894
30.953,33.017
31.11,33.169
31.299,33.353
31.521,33.569
31.778,33.817
32.074,34.097
32.409,34.406
32.78,34.743
33.181,35.104
33.608,35.486
34.059,35.885
34.52,36.295
34.98,36.711
35.428,37.127
35.856,37.537
36.261,37.936
36.641,38.32
36.994,38.686
37.321,39.03
37.621,39.351
37.896,39.645
38.146,39.911
38.37,40.146
38.569,40.352
38.743,40.528
38.895,40.675
39.024,40.794
39.131,40.887
39.216,40.953
39.281,40.997
39.325,41.021
39.351,41.025
39.36,41.012
39.353,40.982
39.333,40.939
39.3,40.884
39.257,40.819
39.206,40.748
39.146,40.673
39.082,40.594
39.013,40.512
38.94,40.429
38.864,40.343
38.785,40.258
38.704,40.173
38.621,40.091
38.536,40.011
38.449,39.933
38.36,39.858
38.269,39.785
38.176,39.713
38.082,39.641
37.986,39.569
37.89,39.495
37.794,39.42
37.698,39.342
37.602,39.26
37.506,39.176
37.41,39.088
37.315,38.996
37.221,38.898
37.129,38.796
37.041,38.688
36.956,38.574
36.876,38.456
36.8,38.333
36.728,38.207
36.659,38.08
36.594,37.954
36.531,37.832
36.469,37.715
36.409,37.605
36.349,37.502
36.289,37.407
36.228,37.32
36.167,37.242
36.108,37.173
36.051,37.113
35.997,37.062
35.946,37.018
35.9,36.982
35.858,36.953
35.822,36.931
35.793,36.916
35.772,36.906
35.756,36.9
35.747,36.896
35.742,36.895
35.739,36.894
35.736,36.893
35.733,36.891
35.725,36.888
35.712,36.882
35.693,36.876
35.667,36.868
35.633,36.858
35.592,36.845
35.545,36.829
35.493,36.809
35.436,36.785
35.376,36.758
35.315,36.728
35.254,36.696
35.193,36.663
35.134,36.628
35.076,36.59
35.021,36.55
34.968,36.506
34.917,36.459
34.866,36.408
34.815,36.354
34.764,36.299
34.711,36.243
34.655,36.187
34.596,36.129
34.533,36.071
34.465,36.013
34.392,35.954
34.314,35.894
34.232,35.834
34.146,35.772
34.057,35.71
33.967,35.646
33.877,35.579
33.788,35.51
33.703,35.439
33.621,35.366
33.544,35.293
33.473,35.22
33.407,35.149
33.347,35.081
33.293,35.014
33.243,34.951
33.197,34.89
33.155,34.831
33.116,34.772
33.08,34.714
33.044,34.656
33.009,34.598
32.973,34.539
32.936,34.48
32.898,34.421
32.858,34.362
32.815,34.304
32.769,34.247
32.721,34.192
32.671,34.139
32.619,34.088
32.565,34.04
32.512,33.993
32.461,33.948
32.412,33.905
32.367,33.862
32.325,33.82
32.289,33.779
32.257,33.74
32.229,33.701
32.205,33.663
32.183,33.626
32.163,33.588
32.144,33.55
32.125,33.51
32.105,33.469
32.083,33.427
32.059,33.384
32.033,33.341
32.005,33.299
31.974,33.26
31.943,33.225
31.909,33.193
31.875,33.166
31.841,33.144
31.808,33.126
31.776,33.111
31.745,33.098
31.714,33.085
31.684,33.072
31.656,33.058
31.63,33.043
31.606,33.025
31.585,33.005
31.567,32.982
31.551,32.956
31.537,32.927
31.524,32.894
31.511,32.859
31.498,32.823
31.484,32.788
31.468,32.754
31.452,32.719
31.434,32.682
31.415,32.643
31.394,32.602
31.371,32.56
31.347,32.519
31.322,32.479
31.297,32.444
31.271,32.412
31.245,32.387
31.221,32.368
31.198,32.356
31.179,32.353
31.167,32.358
31.162,32.374
31.169,32.403
31.189,32.446
31.227,32.505
31.287,32.583
31.371,32.683
31.484,32.807
31.628,32.958
31.805,33.14
32.016,33.355
32.262,33.603
32.54,33.884
32.85,34.198
33.188,34.543
33.551,34.917
33.934,35.316
34.332,35.735
34.739,36.171
35.151,36.618
35.561,37.073
35.965,37.528
36.359,37.978
36.74,38.416
37.104,38.838
37.449,39.237
37.774,39.611
38.077,39.955
38.356,40.268
38.61,40.547
38.84,40.791
39.045,41.001
39.224,41.176
39.378,41.32
39.506,41.434
39.609,41.519
39.686,41.579
39.739,41.614
39.767,41.628
39.773,41.623
39.757,41.603
39.722,41.57
39.669,41.527
39.603,41.476
39.526,41.418
39.441,41.356
39.351,41.29
39.259,41.223
39.167,41.154
39.078,41.085
38.992,41.015
38.91,40.945
38.831,40.875
38.756,40.806
38.682,40.738
38.609,40.671
38.537,40.607
38.464,40.543
38.388,40.481
38.309,40.418
38.225,40.356
38.136,40.294
38.04,40.232
37.939,40.169
37.833,40.105
37.721,40.04
37.607,39.972
37.489,39.901
37.37,39.825
37.252,39.744
37.138,39.659
37.028,39.567
36.925,39.47
36.829,39.366
36.741,39.255
36.663,39.136
36.594,39.011
36.532,38.881
36.478,38.747
36.43,38.611
36.386,38.475
36.347,38.34
36.31,38.208
36.275,38.081
36.24,37.959
36.206,37.843
36.171,37.734
36.135,37.634
36.1,37.542
36.065,37.458
36.031,37.382
35.999,37.314
35.97,37.252
35.944,37.197
35.921,37.148
35.902,37.103
35.887,37.062
35.876,37.024
35.867,36.989
35.861,36.956
35.856,36.926
35.85,36.897
35.842,36.87
35.832,36.844
35.817,36.817
35.798,36.79
35.773,36.761
35.742,36.731
35.707,36.699
35.667,36.664
35.623,36.628
35.574,36.588
35.522,36.546
35.466,36.501
35.407,36.452
35.346,36.4
35.283,36.346
35.217,36.29
35.15,36.234
35.082,36.176
35.012,36.118
34.941,36.059
34.868,36
34.794,35.94
34.72,35.878
34.644,35.816
34.568,35.752
34.49,35.688
34.413,35.624
34.335,35.56
34.258,35.495
34.183,35.428
34.109,35.359
34.036,35.289
33.965,35.217
33.896,35.143
33.828,35.068
33.762,34.992
33.698,34.916
33.637,34.839
33.578,34.761
33.522,34.683
33.47,34.604
33.423,34.524
33.379,34.443
33.338,34.362
33.301,34.283
33.265,34.205
33.232,34.13
33.198,34.056
33.165,33.983
33.13,33.911
33.095,33.84
33.059,33.77
33.02,33.701
32.979,33.634
32.936,33.569
32.891,33.507
32.844,33.446
32.796,33.387
32.746,33.328
32.697,33.271
32.649,33.214
32.603,33.159
32.56,33.106
32.519,33.054
32.482,33.005
32.448,32.958
32.418,32.914
32.39,32.871
32.365,32.83
32.342,32.79
32.32,32.751
32.3,32.715
32.28,32.68
32.258,32.649
32.235,32.619
32.209,32.591
32.18,32.565
32.148,32.54
32.112,32.515
32.074,32.492
32.035,32.469
31.994,32.448
31.955,32.428
31.917,32.409
31.882,32.391
31.852,32.373
31.826,32.356
31.807,32.34
31.793,32.323
31.785,32.306
31.782,32.288
31.782,32.268
31.784,32.248
31.788,32.227
31.792,32.205
31.795,32.183
31.796,32.162
31.794,32.139
31.789,32.116
31.78,32.092
31.766,32.066
31.746,32.039
31.722,32.011
31.694,31.982
31.661,31.953
31.626,31.924
31.59,31.897
31.554,31.87
31.519,31.844
31.487,31.82
31.461,31.795
31.442,31.769
31.432,31.744
31.434,31.718
31.451,31.693
31.485,31.668
31.54,31.645
31.619,31.623
31.724,31.602
31.857,31.583
32.019,31.564
32.212,31.544
32.436,31.524
32.691,31.505
32.976,31.485
33.29,31.465
33.63,31.446
33.993,31.426
34.374,31.406
34.769,31.386
35.174,31.364
35.585,31.341
35.997,31.316
36.405,31.292
36.804,31.266
37.191,31.241
37.562,31.215
37.914,31.189
38.245,31.162
38.553,31.136
38.835,31.11
39.089,31.084
39.315,31.059
39.511,31.034
39.677,31.011
39.813,30.991
39.921,30.974
40,30.963
40.052,30.958
40.078,30.962
40.081,30.977
40.063,31.008
40.027,31.056
39.976,31.126
39.912,31.223
39.839,31.349
39.759,31.508
39.674,31.702
39.586,31.933
39.497,32.2
39.408,32.505
39.32,32.846
39.235,33.221
39.151,33.626
39.068,34.059
38.985,34.513
38.9,34.985
38.811,35.467
38.719,35.954
38.621,36.44
38.516,36.918
38.406,37.384
38.288,37.834
38.166,38.265
38.038,38.671
37.906,39.049
37.773,39.397
37.638,39.713
37.506,39.996
37.377,40.246
37.252,40.463
37.134,40.646
37.024,40.796
36.923,40.915
36.83,41.004
36.748,41.066
36.674,41.104
36.609,41.122
36.552,41.122
36.503,41.108
36.459,41.08
36.421,41.042
36.386,40.996
36.353,40.946
36.322,40.891
36.292,40.835
36.263,40.777
36.235,40.718
36.208,40.659
36.182,40.6
36.158,40.541
36.137,40.483
36.119,40.426
36.106,40.37
36.096,40.314
36.091,40.26
36.089,40.206
36.091,40.152
36.095,40.099
36.102,40.047
36.109,39.996
36.116,39.944
36.12,39.892
36.121,39.839
36.116,39.784
36.105,39.726
36.087,39.665
36.062,39.6
36.029,39.531
35.989,39.456
35.942,39.376
35.887,39.29
35.827,39.197
35.762,39.098
35.693,38.993
35.621,38.88
35.548,38.761
35.475,38.637
35.403,38.509
35.332,38.379
35.263,38.248
35.196,38.118
35.131,37.99
35.069,37.866
35.008,37.746
34.949,37.633
34.889,37.526
34.83,37.428
34.77,37.338
34.709,37.256
34.647,37.183
34.585,37.117
34.52,37.059
34.455,37.007
34.389,36.961
34.323,36.919
34.256,36.88
34.188,36.844
34.121,36.81
34.055,36.777
33.99,36.744
33.925,36.711
33.861,36.678
33.799,36.645
33.738,36.61
33.679,36.575
33.622,36.538
33.567,36.498
33.514,36.456
33.462,36.412
33.412,36.365
33.364,36.317
33.317,36.266
33.271,36.214
33.225,36.161
33.179,36.108
33.133,36.055
33.087,36.001
33.042,35.947
32.997,35.891
32.954,35.833
32.913,35.774
32.874,35.715
32.838,35.655
32.805,35.594
32.775,35.531
32.749,35.467
32.725,35.402
32.705,35.334
32.687,35.266
32.672,35.197
32.658,35.127
32.647,35.058
32.636,34.988
32.626,34.919
32.617,34.849
32.606,34.777
32.595,34.705
32.582,34.632
32.567,34.559
32.549,34.486
32.528,34.413
32.504,34.341
32.478,34.271
32.45,34.202
32.419,34.133
32.386,34.064
32.353,33.995
32.319,33.926
32.287,33.858
32.255,33.791
32.225,33.726
32.198,33.661
32.173,33.597
32.152,33.533
32.133,33.467
32.118,33.402
32.107,33.336
32.099,33.271
32.095,33.207
32.095,33.145
32.1,33.085
32.112,33.028
32.132,32.973
32.161,32.919
32.203,32.868
32.261,32.819
32.337,32.772
32.435,32.727
32.557,32.684
32.707,32.643
32.886,32.606
33.096,32.571
33.338,32.539
33.613,32.509
33.919,32.482
34.254,32.456
34.614,32.431
34.997,32.408
35.397,32.386
35.81,32.365
36.23,32.344
36.652,32.323
37.069,32.302
37.477,32.281
37.871,32.259
38.246,32.237
38.597,32.216
38.921,32.196
39.216,32.176
39.479,32.154
39.706,32.131
39.897,32.109
40.053,32.085
40.173,32.061
40.261,32.032
40.32,31.997
40.353,31.96
40.364,31.927
40.357,31.9
40.337,31.879
40.305,31.864
40.265,31.853
40.216,31.844
40.161,31.835
40.099,31.825
40.031,31.811
39.956,31.795
39.875,31.774
39.786,31.749
39.691,31.719
39.59,31.684
39.482,31.646
39.369,31.605
39.252,31.562
39.132,31.518
39.01,31.473
38.887,31.429
38.763,31.385
38.639,31.343
38.516,31.303
38.395,31.267
38.276,31.233
38.158,31.202
38.043,31.175
37.928,31.151
37.814,31.129
37.7,31.109
37.587,31.091
37.474,31.073
37.361,31.057
37.247,31.042
37.134,31.026
37.022,31.009
36.913,30.989
36.807,30.966
36.707,30.941
36.614,30.914
36.53,30.885
36.455,30.855
36.39,30.824
36.336,30.794
36.294,30.764
36.264,30.736
36.245,30.71
36.236,30.686
36.237,30.663
36.246,30.641
36.262,30.62
36.282,30.6
36.306,30.582
36.331,30.565
36.356,30.55
36.379,30.537
36.399,30.526
36.415,30.516
36.427,30.505
36.433,30.495
36.433,30.485
36.428,30.474
36.417,30.463
36.401,30.453
36.38,30.443
36.357,30.434
36.331,30.427
36.303,30.421
36.27,30.416
36.231,30.412
36.187,30.409
36.145,30.404
36.108,30.397
36.079,30.389
36.056,30.38
36.037,30.37
36.017,30.361
35.992,30.352
35.96,30.345
35.917,30.338
35.862,30.332
35.793,30.327
35.71,30.322
35.616,30.318
35.51,30.314
35.398,30.31
35.281,30.306
35.162,30.301
35.043,30.295
34.927,30.287
34.816,30.278
34.713,30.269
34.619,30.258
34.535,30.248
34.461,30.236
34.396,30.224
34.341,30.212
34.293,30.201
34.251,30.192
34.212,30.19
34.175,30.195
34.137,30.213
34.095,30.246
34.049,30.297
33.998,30.37
33.944,30.469
33.887,30.597
33.829,30.757
33.771,30.952
33.714,31.183
33.659,31.453
33.605,31.76
33.554,32.102
33.506,32.477
33.463,32.881
33.425,33.307
33.392,33.751
33.364,34.208
33.34,34.672
33.319,35.137
33.301,35.598
33.282,36.049
33.263,36.487
33.243,36.907
33.22,37.305
33.194,37.68
33.164,38.03
33.13,38.353
33.091,38.648
33.048,38.914
33.003,39.151
32.955,39.359
32.907,39.54
32.86,39.695
32.813,39.825
32.769,39.931
32.728,40.014
32.69,40.075
32.656,40.117
32.626,40.141
32.599,40.15
32.575,40.146
32.554,40.132
32.534,40.108
32.517,40.077
32.501,40.039
32.486,39.997
32.472,39.951
32.458,39.902
32.445,39.851
32.432,39.798
32.422,39.743
32.417,39.688
32.421,39.633
32.436,39.577
32.469,39.521
32.522,39.464
32.6,39.405
32.706,39.344
32.844,39.283
33.018,39.221
33.227,39.159
33.474,39.097
33.758,39.035
34.079,38.973
34.434,38.912
34.82,38.85
35.234,38.786
35.669,38.72
36.122,38.65
36.585,38.578
37.053,38.502
37.518,38.422
37.973,38.338
38.413,38.249
38.833,38.155
39.227,38.057
39.594,37.954
39.931,37.847
40.235,37.736
40.508,37.622
40.749,37.506
40.958,37.39
41.137,37.276
41.287,37.166
41.409,37.059
41.505,36.958
41.576,36.863
41.623,36.773
41.648,36.688
41.653,36.608
41.639,36.533
41.609,36.463
41.563,36.398
41.505,36.338
41.435,36.283
41.355,36.232
41.266,36.186
41.17,36.143
41.068,36.103
40.963,36.066
40.854,36.029
40.743,35.994
40.631,35.959
40.517,35.924
40.403,35.888
40.289,35.85
40.175,35.811
40.06,35.771
39.945,35.73
39.828,35.689
39.71,35.647
39.589,35.605
39.466,35.562
39.341,35.518
39.214,35.471
39.086,35.42
38.957,35.367
38.828,35.312
38.698,35.254
38.568,35.197
38.439,35.139
38.312,35.08
38.188,35.019
38.069,34.957
37.956,34.891
37.849,34.823
37.752,34.753
37.662,34.681
37.581,34.609
37.509,34.538
37.447,34.468
37.395,34.4
37.354,34.333
37.322,34.269
37.298,34.204
37.28,34.141
37.268,34.077
37.259,34.013
37.252,33.949
37.245,33.884
37.237,33.818
37.228,33.75
37.217,33.682
37.204,33.614
37.19,33.545
37.176,33.476
37.16,33.409
37.143,33.342
37.124,33.277
37.105,33.213
37.085,33.15
37.065,33.088
37.045,33.028
37.024,32.968
37.001,32.907
36.974,32.847
36.944,32.787
36.908,32.727
36.868,32.669
36.821,32.612
36.769,32.555
36.711,32.5
36.648,32.447
36.58,32.394
36.507,32.343
36.431,32.292
36.351,32.242
36.269,32.192
36.186,32.142
36.102,32.091
36.018,32.039
35.935,31.987
35.853,31.936
35.773,31.885
35.695,31.835
35.619,31.787
35.544,31.74
35.47,31.695
35.396,31.651
35.322,31.608
35.249,31.566
35.174,31.523
35.098,31.479
35.019,31.436
34.939,31.393
34.856,31.351
34.771,31.311
34.686,31.273
34.6,31.237
34.516,31.203
34.434,31.17
34.357,31.136
34.283,31.103
34.215,31.068
34.152,31.034
34.094,30.999
34.042,30.965
33.996,30.93
33.954,30.897
33.916,30.865
33.882,30.833
33.85,30.802
33.819,30.771
33.788,30.742
33.757,30.714
33.725,30.687
33.693,30.661
33.66,30.636
33.625,30.614
33.588,30.593
33.549,30.574
33.508,30.557
33.464,30.538
33.419,30.519
33.373,30.498
33.327,30.476
33.282,30.452
33.238,30.427
33.196,30.401
33.157,30.374
33.119,30.347
33.083,30.32
33.048,30.293
33.014,30.268
32.981,30.245
32.949,30.223
32.918,30.202
32.887,30.182
32.856,30.164
32.825,30.147
32.795,30.131
32.763,30.115
32.73,30.1
32.697,30.083
32.665,30.065
32.632,30.046
32.6,30.025
32.568,30.002
32.536,29.98
32.506,29.958
32.479,29.936
32.459,29.916
32.446,29.898
32.445,29.881
32.459,29.866
32.494,29.852
32.552,29.84
32.639,29.829
32.758,29.82
32.912,29.812
33.104,29.805
33.336,29.797
33.606,29.789
33.915,29.78
34.261,29.769
34.642,29.756
35.053,29.741
35.49,29.724
35.949,29.705
36.424,29.684
36.908,29.662
37.397,29.64
37.885,29.621
38.367,29.603
38.839,29.588
39.296,29.575
39.734,29.564
40.15,29.552
40.541,29.538
40.904,29.523
41.237,29.507
41.537,29.487
41.802,29.467
42.031,29.445
42.223,29.424
42.379,29.404
42.499,29.387
42.586,29.376
42.642,29.372
42.668,29.378
42.669,29.397
42.648,29.432
42.607,29.484
42.551,29.559
42.483,29.657
42.404,29.782
42.317,29.936
42.225,30.119
42.128,30.332
42.028,30.577
41.925,30.852
41.82,31.157
41.715,31.492
41.609,31.854
41.504,32.24
41.399,32.646
41.296,33.069
41.193,33.502
41.091,33.941
40.991,34.382
40.89,34.821
40.788,35.252
40.683,35.673
40.576,36.079
40.464,36.468
40.347,36.836
40.226,37.182
40.101,37.504
39.972,37.801
39.839,38.072
39.704,38.317
39.567,38.535
39.43,38.726
39.295,38.891
39.164,39.032
39.039,39.151
38.92,39.249
38.807,39.328
38.702,39.387
38.604,39.429
38.513,39.453
38.43,39.464
38.352,39.463
38.28,39.451
38.212,39.432
38.149,39.404
38.089,39.37
38.035,39.328
37.984,39.28
37.938,39.226
37.896,39.169
37.858,39.11
37.823,39.047
37.79,38.984
37.761,38.919
37.733,38.854
37.707,38.79
37.682,38.727
37.656,38.666
37.63,38.607
37.601,38.55
37.57,38.494
37.535,38.441
37.496,38.389
37.452,38.338
37.405,38.288
37.355,38.239
37.302,38.188
37.246,38.134
37.188,38.077
37.127,38.016
37.065,37.949
37,37.877
36.934,37.801
36.866,37.721
36.796,37.638
36.723,37.552
36.649,37.463
36.572,37.372
36.494,37.278
36.413,37.183
36.329,37.086
36.244,36.989
36.157,36.895
36.068,36.802
35.978,36.712
35.887,36.625
35.795,36.541
35.702,36.462
35.61,36.386
35.518,36.315
35.429,36.25
35.342,36.19
35.256,36.135
35.173,36.084
35.091,36.036
35.013,35.99
34.936,35.946
34.862,35.902
34.789,35.861
34.718,35.824
34.65,35.789
34.583,35.758
34.518,35.728
34.454,35.698
34.391,35.668
34.328,35.636
34.265,35.603
34.202,35.57
34.14,35.535
34.078,35.498
34.016,35.461
33.956,35.423
33.896,35.385
33.839,35.346
33.783,35.307
33.731,35.267
33.682,35.225
33.636,35.183
33.593,35.138
33.554,35.093
33.517,35.046
33.484,34.999
33.453,34.952
33.425,34.904
33.399,34.854
33.374,34.8
33.351,34.743
33.327,34.682
33.302,34.616
33.276,34.546
33.248,34.472
33.217,34.396
33.184,34.319
33.15,34.24
33.113,34.161
33.075,34.085
33.035,34.011
32.995,33.941
32.955,33.875
32.915,33.815
32.877,33.761
32.84,33.717
32.806,33.687
32.774,33.668
32.745,33.656
32.717,33.648
32.692,33.638
32.668,33.624
32.644,33.601
32.62,33.567
32.597,33.522
32.573,33.464
32.549,33.393
32.523,33.31
32.496,33.215
32.467,33.112
32.434,33.003
32.399,32.892
32.36,32.782
32.318,32.677
32.273,32.579
32.226,32.49
32.18,32.41
32.136,32.339
32.095,32.277
32.061,32.221
32.036,32.172
32.025,32.128
32.032,32.087
32.06,32.05
32.114,32.015
32.198,31.981
32.316,31.948
32.47,31.914
32.664,31.88
32.898,31.846
33.174,31.811
33.491,31.775
33.847,31.738
34.24,31.701
34.668,31.665
35.125,31.63
35.606,31.595
36.106,31.562
36.617,31.529
37.135,31.496
37.654,31.463
38.166,31.43
38.666,31.397
39.15,31.366
39.612,31.336
40.048,31.309
40.455,31.283
40.829,31.259
41.169,31.236
41.473,31.213
41.74,31.191
41.969,31.168
42.162,31.144
42.319,31.118
42.441,31.09
42.528,31.061
42.583,31.032
42.609,31.002
42.606,30.972
42.58,30.945
42.534,30.92
42.472,30.899
42.399,30.882
42.316,30.869
42.227,30.859
42.135,30.853
42.041,30.848
41.946,30.843
41.851,30.837
41.755,30.83
41.66,30.819
41.563,30.806
41.466,30.79
41.366,30.771
41.264,30.75
41.16,30.728
41.054,30.705
40.945,30.682
40.833,30.66
40.719,30.639
40.603,30.619
40.485,30.601
40.367,30.586
40.249,30.573
40.129,30.561
40.008,30.551
39.886,30.541
39.761,30.53
39.635,30.519
39.508,30.506
39.381,30.491
39.255,30.475
39.131,30.459
39.01,30.442
38.891,30.427
38.775,30.413
38.663,30.402
38.555,30.392
38.454,30.384
38.359,30.377
38.27,30.369
38.187,30.359
38.112,30.346
38.044,30.331
37.983,30.312
37.928,30.291
37.878,30.268
37.834,30.243
37.794,30.22
37.759,30.197
37.728,30.179
37.7,30.165
37.674,30.157
37.648,30.159
37.622,30.172
37.595,30.198
37.566,30.242
37.535,30.306
37.501,30.392
37.464,30.503
37.423,30.641
37.379,30.808
37.332,31.005
37.281,31.234
37.227,31.497
37.171,31.792
37.113,32.119
37.053,32.476
36.992,32.861
36.93,33.268
36.867,33.694
36.804,34.133
36.74,34.58
36.675,35.03
36.607,35.48
36.536,35.926
36.463,36.364
36.386,36.79
36.305,37.201
36.219,37.597
36.13,37.974
36.037,38.33
35.94,38.665
35.839,38.975
35.736,39.261
35.631,39.521
35.525,39.756
35.42,39.968
35.317,40.157
35.219,40.324
35.125,40.468
35.038,40.591
34.957,40.692
34.883,40.772
34.814,40.834
34.75,40.878
34.69,40.907
34.633,40.921
34.579,40.921
34.526,40.908
34.474,40.883
34.424,40.849
34.373,40.806
34.322,40.757
34.27,40.702
34.216,40.642
34.16,40.577
34.103,40.511
34.045,40.443
33.985,40.374
33.923,40.305
33.858,40.237
33.791,40.169
33.724,40.103
33.658,40.039
33.592,39.977
33.527,39.916
33.464,39.856
33.404,39.797
33.348,39.74
33.295,39.683
33.248,39.627
33.204,39.571
33.165,39.515
33.13,39.459
33.099,39.401
33.072,39.34
33.046,39.275
33.022,39.205
32.998,39.131
32.972,39.053
32.944,38.971
32.913,38.885
32.879,38.796
32.843,38.703
32.804,38.607
32.764,38.51
32.723,38.41
32.682,38.308
32.642,38.205
32.604,38.1
32.57,37.996
32.538,37.894
32.51,37.795
32.487,37.701
32.466,37.611
32.447,37.524
32.43,37.442
32.413,37.364
32.397,37.29
32.379,37.22
32.361,37.153
32.342,37.092
32.322,37.034
32.301,36.982
32.278,36.934
32.255,36.889
32.231,36.848
32.207,36.809
32.183,36.773
32.16,36.737
32.138,36.703
32.116,36.67
32.094,36.637
32.073,36.604
32.052,36.571
32.031,36.538
32.01,36.505
31.988,36.472
31.965,36.438
31.942,36.401
31.919,36.362
31.894,36.32
31.869,36.276
31.843,36.23
31.815,36.183
31.786,36.134
31.758,36.086
31.731,36.036
31.711,35.987
31.699,35.936
31.7,35.885
31.716,35.832
31.749,35.778
31.801,35.722
31.872,35.664
31.962,35.604
32.078,35.543
32.224,35.478
32.406,35.412
32.63,35.345
32.898,35.276
33.21,35.208
33.568,35.138
33.971,35.067
34.416,34.995
34.897,34.92
35.408,34.844
35.942,34.766
36.492,34.687
37.049,34.608
37.606,34.53
38.155,34.452
38.689,34.374
39.201,34.298
39.686,34.221
40.138,34.143
40.555,34.064
40.934,33.985
41.274,33.905
41.574,33.827
41.834,33.749
42.054,33.673
42.234,33.6
42.378,33.528
42.487,33.459
42.564,33.391
42.609,33.325
42.626,33.26
42.615,33.196
42.579,33.131
42.522,33.067
42.445,33.001
42.353,32.935
42.247,32.869
42.13,32.804
42.005,32.741
41.873,32.679
41.737,32.62
41.598,32.564
41.459,32.51
41.321,32.46
41.187,32.412
41.057,32.364
40.934,32.315
40.818,32.265
40.709,32.215
40.607,32.165
40.51,32.116
40.416,32.068
40.325,32.022
40.234,31.979
40.142,31.937
40.047,31.898
39.946,31.861
39.839,31.826
39.725,31.794
39.603,31.766
39.476,31.739
39.344,31.714
39.209,31.689
39.074,31.663
38.938,31.637
38.804,31.609
38.675,31.581
38.553,31.553
38.438,31.524
38.332,31.497
38.236,31.471
38.149,31.448
38.07,31.426
38,31.404
37.937,31.382
37.881,31.359
37.831,31.334
37.784,31.308
37.74,31.282
37.697,31.256
37.654,31.23
37.61,31.205
37.565,31.181
37.519,31.159
37.473,31.138
37.425,31.117
37.379,31.097
37.332,31.078
37.287,31.059
37.242,31.038
37.199,31.018
37.159,30.996
37.122,30.974
37.087,30.952
37.055,30.928
37.023,30.904
36.991,30.88
36.958,30.855
36.921,30.83
36.879,30.805
36.831,30.781
36.776,30.76
36.713,30.741
36.642,30.725
36.564,30.711
36.48,30.699
36.39,30.687
36.295,30.674
36.198,30.66
36.098,30.644
35.999,30.627
35.901,30.607
35.805,30.586
35.712,30.565
35.623,30.544
35.538,30.524
35.456,30.506
35.378,30.49
35.302,30.476
35.227,30.461
35.152,30.446
35.076,30.429
35,30.41
34.923,30.391
34.846,30.372
34.768,30.353
34.69,30.337
34.612,30.324
34.536,30.318
34.46,30.321
34.385,30.337
34.311,30.369
34.238,30.419
34.167,30.492
34.097,30.589
34.03,30.714
33.965,30.868
33.901,31.055
33.841,31.274
33.782,31.526
33.725,31.811
33.671,32.128
33.619,32.476
33.569,32.852
33.521,33.252
33.474,33.675
33.427,34.116
33.379,34.572
33.329,35.037
33.276,35.506
33.219,35.975
33.159,36.439
33.096,36.894
33.032,37.338
32.967,37.768
32.903,38.181
32.842,38.574
32.786,38.946
32.735,39.294
32.689,39.617
32.649,39.916
32.615,40.189
32.585,40.436
32.56,40.658
32.539,40.854
32.52,41.026
32.503,41.173
32.487,41.297
32.472,41.399
32.457,41.48
32.442,41.542
32.424,41.586
32.405,41.616
32.383,41.631
32.358,41.634
32.329,41.626
32.297,41.607
32.261,41.578
32.224,41.541
32.186,41.497
32.146,41.447
32.107,41.392
32.07,41.334
32.035,41.274
32.003,41.212
31.975,41.149
31.951,41.085
31.932,41.021
31.918,40.956
31.908,40.892
31.902,40.831
31.898,40.771
31.896,40.713
31.895,40.654
31.892,40.595
31.888,40.535
31.882,40.474
31.872,40.413
31.858,40.349
31.838,40.282
31.814,40.21
31.784,40.134
31.75,40.052
31.711,39.964
31.669,39.871
31.624,39.773
31.579,39.67
31.535,39.565
31.492,39.457
31.451,39.348
31.414,39.238
31.38,39.128
31.349,39.016
31.32,38.903
31.295,38.789
31.272,38.676
31.253,38.565
31.237,38.459
31.224,38.357
31.214,38.26
31.208,38.168
31.208,38.08
31.216,37.996
31.235,37.917
31.267,37.844
31.319,37.775
31.392,37.712
31.492,37.653
31.621,37.6
31.784,37.552
31.984,37.509
32.225,37.47
32.509,37.433
32.836,37.399
33.208,37.366
33.62,37.334
34.07,37.302
34.553,37.271
35.064,37.241
35.596,37.212
36.142,37.184
36.694,37.157
37.247,37.129
37.79,37.101
38.319,37.069
38.825,37.033
39.303,36.994
39.748,36.952
40.157,36.909
40.526,36.866
40.852,36.821
41.135,36.775
41.376,36.726
41.574,36.673
41.733,36.616
41.856,36.556
41.944,36.493
42.002,36.428
42.033,36.361
42.042,36.294
42.03,36.226
42,36.158
41.955,36.088
41.895,36.016
41.822,35.943
41.738,35.869
41.643,35.793
41.538,35.717
41.426,35.641
41.307,35.565
41.182,35.487
41.054,35.41
40.922,35.334
40.79,35.259
40.658,35.185
40.529,35.11
40.402,35.035
40.28,34.96
40.161,34.884
40.046,34.809
39.932,34.735
39.82,34.662
39.708,34.59
39.595,34.519
39.478,34.45
39.357,34.383
39.231,34.316
39.101,34.25
38.965,34.183
38.825,34.117
38.682,34.051
38.536,33.987
38.388,33.923
38.241,33.858
38.097,33.793
37.958,33.728
37.827,33.664
37.705,33.602
37.594,33.541
37.494,33.482
37.406,33.425
37.331,33.369
37.267,33.313
37.215,33.257
37.174,33.199
37.141,33.14
37.114,33.081
37.094,33.022
37.076,32.964
37.061,32.907
37.047,32.851
37.031,32.797
37.012,32.745
36.988,32.693
36.961,32.643
36.929,32.592
36.892,32.543
36.852,32.495
36.808,32.45
36.763,32.407
36.718,32.366
36.672,32.327
36.627,32.289
36.582,32.252
36.539,32.217
36.497,32.183
36.455,32.151
36.414,32.12
36.372,32.092
36.329,32.065
36.284,32.04
36.236,32.014
36.184,31.987
36.128,31.959
36.067,31.929
36.001,31.897
35.929,31.864
35.851,31.829
35.767,31.794
35.677,31.759
35.582,31.724
35.483,31.689
35.382,31.653
35.279,31.614
35.176,31.573
35.075,31.532
34.976,31.49
34.88,31.448
34.788,31.409
34.701,31.373
34.618,31.342
34.54,31.317
34.465,31.301
34.393,31.295
34.322,31.303
34.25,31.326
34.179,31.368
34.106,31.432
34.032,31.519
33.955,31.633
33.877,31.775
33.797,31.949
33.716,32.154
33.637,32.392
33.559,32.662
33.485,32.963
33.416,33.295
33.351,33.656
33.291,34.042
33.236,34.448
33.186,34.871
33.14,35.304
33.1,35.743
33.063,36.186
33.029,36.628
32.998,37.065
32.967,37.493
32.936,37.909
32.903,38.311
32.866,38.696
32.825,39.061
32.779,39.406
32.728,39.728
32.674,40.028
32.618,40.305
32.56,40.557
32.502,40.783
32.445,40.981
32.39,41.152
32.336,41.295
32.286,41.411
32.239,41.501
32.197,41.569
32.159,41.616
32.126,41.645
32.097,41.658
32.074,41.657
32.056,41.644
32.041,41.62
32.03,41.586
32.02,41.544
32.011,41.493
32.001,41.435
31.99,41.371
31.977,41.3
31.962,41.224
31.944,41.143
31.923,41.06
31.9,40.972
31.874,40.881
31.847,40.789
31.818,40.698
31.789,40.614
31.76,40.539
31.732,40.473
31.705,40.414
31.68,40.363
31.656,40.318
31.634,40.275
31.615,40.229
31.598,40.178
31.583,40.118
31.569,40.046
31.556,39.961
31.543,39.862
31.53,39.749
31.516,39.624
31.5,39.487
31.482,39.343
31.461,39.191
31.437,39.036
31.409,38.877
31.377,38.719
31.34,38.562
31.299,38.408
31.255,38.26
31.209,38.119
31.162,37.983
31.117,37.855
31.073,37.734
31.031,37.62
30.994,37.515
30.962,37.418
30.937,37.33
30.921,37.25
30.915,37.176
30.924,37.109
30.95,37.047
30.996,36.991
31.068,36.941
31.168,36.896
31.3,36.856
31.467,36.821
31.671,36.79
31.913,36.761
32.194,36.734
32.512,36.709
32.867,36.685
33.255,36.663
33.673,36.641
34.115,36.619
34.577,36.597
35.054,36.575
35.54,36.551
36.029,36.525
36.516,36.498
36.994,36.47
37.46,36.441
37.909,36.41
38.337,36.379
38.742,36.345
39.121,36.309
39.47,36.27
39.788,36.228
40.073,36.183
40.322,36.134
40.535,36.082
40.71,36.026
40.849,35.966
40.951,35.902
41.018,35.834
41.052,35.763
41.054,35.69
41.029,35.616
40.98,35.54
40.909,35.465
40.82,35.389
40.718,35.312
40.604,35.235
40.483,35.157
40.358,35.079
40.23,35.001
40.101,34.923
39.973,34.846
39.845,34.769
39.717,34.694
39.589,34.619
39.461,34.544
39.332,34.47
39.201,34.396
39.068,34.323
38.934,34.251
38.796,34.179
38.655,34.107
38.511,34.037
38.364,33.967
38.216,33.899
38.067,33.832
37.918,33.767
37.771,33.704
37.628,33.643
37.489,33.584
37.354,33.526
37.226,33.468
37.103,33.412
36.988,33.355
36.88,33.298
36.779,33.24
36.687,33.181
36.602,33.122
36.525,33.063
36.454,33.003
36.39,32.944
36.332,32.885
36.281,32.827
36.235,32.771
36.195,32.717
36.162,32.667
36.133,32.619
36.111,32.575
36.093,32.534
36.078,32.496
36.068,32.458
36.061,32.422
36.056,32.385
36.054,32.348
36.054,32.311
36.056,32.272
36.06,32.233
36.064,32.192
36.067,32.151
36.069,32.108
36.069,32.065
36.067,32.02
36.062,31.976
36.053,31.932
36.04,31.888
36.023,31.847
36,31.808
35.972,31.772
35.938,31.737
35.898,31.704
35.852,31.672
35.801,31.64
35.744,31.61
35.682,31.582
35.615,31.556
35.545,31.535
35.473,31.52
35.398,31.512
35.322,31.516
35.245,31.533
35.168,31.567
35.09,31.621
35.012,31.7
34.933,31.808
34.855,31.946
34.776,32.119
34.697,32.327
34.617,32.57
34.538,32.849
34.457,33.162
34.377,33.507
34.296,33.882
34.216,34.284
34.136,34.708
34.057,35.151
33.979,35.608
33.903,36.074
33.83,36.544
33.761,37.014
33.695,37.478
33.632,37.931
33.573,38.37
33.517,38.791
33.465,39.192
33.416,39.571
33.368,39.925
33.321,40.253
33.274,40.553
33.226,40.825
33.176,41.067
33.124,41.28
33.07,41.464
33.016,41.62
32.96,41.749
32.904,41.853
32.847,41.931
32.789,41.987
32.73,42.02
32.673,42.035
32.617,42.031
32.563,42.011
32.511,41.975
32.463,41.926
32.418,41.864
32.376,41.791
32.339,41.709
32.307,41.619
32.28,41.523
32.257,41.423
32.239,41.32
32.224,41.214
32.212,41.108
32.201,41.002
32.191,40.898
32.182,40.796
32.172,40.698
32.16,40.603
32.146,40.51
32.13,40.419
32.112,40.33
32.092,40.242
32.07,40.155
32.046,40.068
32.022,39.98
31.996,39.892
31.97,39.802
31.944,39.709
31.917,39.612
31.89,39.511
31.863,39.406
31.837,39.297
31.811,39.184
31.785,39.069
31.76,38.95
31.736,38.829
31.712,38.707
31.69,38.584
31.668,38.459
31.648,38.335
31.631,38.211
31.618,38.089
31.612,37.97
31.617,37.855
31.635,37.742
31.671,37.632
31.731,37.526
31.818,37.424
31.938,37.328
32.095,37.237
32.291,37.154
32.529,37.075
32.809,37.002
33.129,36.934
33.489,36.871
33.884,36.813
34.309,36.761
34.761,36.713
35.232,36.67
35.715,36.629
36.203,36.592
36.69,36.556
37.167,36.522
37.63,36.49
38.072,36.458
38.489,36.426
38.878,36.395
39.235,36.364
39.556,36.333
39.84,36.302
40.085,36.27
40.292,36.236
40.463,36.201
40.599,36.165
40.703,36.127
40.777,36.087
40.824,36.045
40.847,36
40.847,35.954
40.827,35.905
40.79,35.854
40.737,35.802
40.669,35.748
40.588,35.692
40.494,35.634
40.389,35.573
40.273,35.511
40.148,35.448
40.014,35.382
39.874,35.315
39.728,35.246
39.579,35.174
39.427,35.1
39.276,35.025
39.125,34.948
38.977,34.869
38.833,34.791
38.692,34.711
38.555,34.632
38.422,34.552
38.29,34.471
38.161,34.39
38.032,34.308
37.902,34.227
37.771,34.147
37.638,34.067
37.503,33.988
37.364,33.908
37.223,33.829
37.08,33.751
36.934,33.674
36.788,33.597
36.643,33.522
36.502,33.449
36.368,33.378
36.242,33.308
36.128,33.24
36.027,33.171
35.94,33.102
35.868,33.034
35.812,32.965
35.771,32.898
35.745,32.833
35.731,32.77
35.728,32.71
35.734,32.653
35.746,32.598
35.761,32.545
35.779,32.493
35.796,32.442
35.812,32.391
35.825,32.341
35.834,32.293
35.838,32.246
35.836,32.201
35.828,32.159
35.815,32.119
35.797,32.08
35.773,32.044
35.745,32.009
35.714,31.977
35.682,31.947
35.649,31.919
35.615,31.894
35.581,31.87
35.548,31.847
35.515,31.823
35.482,31.798
35.449,31.772
35.414,31.745
35.378,31.715
35.34,31.684
35.298,31.652
35.253,31.621
35.205,31.59
35.152,31.559
35.094,31.527
35.033,31.496
34.967,31.466
34.896,31.436
34.823,31.407
34.747,31.38
34.67,31.355
34.591,31.335
34.511,31.321
34.431,31.317
34.352,31.326
34.272,31.351
34.193,31.396
34.113,31.466
34.032,31.563
33.95,31.69
33.867,31.852
33.785,32.05
33.702,32.286
33.62,32.56
33.54,32.871
33.462,33.219
33.385,33.6
33.312,34.012
33.241,34.45
33.175,34.91
33.113,35.386
33.055,35.873
33.003,36.365
32.955,36.857
32.912,37.346
32.873,37.826
32.838,38.294
32.808,38.746
32.78,39.179
32.75,39.589
32.717,39.974
32.678,40.333
32.637,40.663
32.595,40.964
32.554,41.235
32.514,41.475
32.476,41.685
32.439,41.865
32.405,42.015
32.371,42.138
32.337,42.233
32.301,42.304
32.265,42.352
32.229,42.379
32.193,42.386
32.16,42.375
32.129,42.348
32.101,42.307
32.076,42.254
32.054,42.191
32.034,42.12
32.016,42.041
31.999,41.956
31.985,41.866
31.971,41.771
31.958,41.672
31.944,41.571
31.928,41.468
31.91,41.366
31.89,41.264
31.868,41.162
31.843,41.062
31.816,40.962
31.789,40.863
31.761,40.765
31.734,40.666
31.71,40.566
31.691,40.465
31.681,40.362
31.684,40.258
31.705,40.153
31.749,40.046
31.821,39.938
31.927,39.828
32.07,39.715
32.256,39.599
32.486,39.48
32.762,39.357
33.084,39.231
33.448,39.102
33.853,38.97
34.294,38.837
34.765,38.703
35.26,38.569
35.771,38.437
36.29,38.306
36.811,38.178
37.324,38.055
37.824,37.936
38.305,37.821
38.76,37.712
39.187,37.607
39.581,37.507
39.94,37.413
40.263,37.324
40.548,37.239
40.797,37.159
41.011,37.081
41.192,37.008
41.342,36.939
41.464,36.874
41.559,36.813
41.63,36.756
41.678,36.702
41.705,36.652
41.712,36.605
41.701,36.561
41.672,36.518
41.626,36.478
41.563,36.439
41.484,36.402
41.391,36.366
41.286,36.329
41.169,36.292
41.044,36.254
40.912,36.215
40.774,36.174
40.633,36.132
40.491,36.09
40.35,36.046
40.21,36
40.072,35.952
39.939,35.902
39.808,35.849
39.68,35.794
39.554,35.738
39.427,35.68
39.3,35.62
39.17,35.559
39.037,35.496
38.899,35.432
38.758,35.366
38.613,35.297
38.466,35.227
38.317,35.155
38.17,35.082
38.026,35.009
37.887,34.936
37.755,34.863
37.631,34.79
37.515,34.717
37.409,34.645
37.313,34.572
37.228,34.5
37.153,34.428
37.089,34.355
37.034,34.282
36.987,34.208
36.946,34.133
36.91,34.058
36.878,33.982
36.848,33.906
36.818,33.829
36.788,33.751
36.757,33.674
36.724,33.597
36.69,33.519
36.655,33.441
36.62,33.364
36.586,33.287
36.552,33.211
36.521,33.135
36.492,33.06
36.466,32.986
36.444,32.914
36.425,32.843
36.408,32.775
36.391,32.708
36.373,32.643
36.353,32.58
36.329,32.517
36.302,32.455
36.27,32.394
36.232,32.334
36.19,32.275
36.143,32.217
36.091,32.161
36.033,32.107
35.97,32.056
35.902,32.005
35.83,31.957
35.754,31.91
35.676,31.866
35.594,31.823
35.511,31.781
35.426,31.741
35.341,31.703
35.256,31.667
35.171,31.634
35.086,31.603
35.003,31.574
34.92,31.547
34.838,31.521
34.756,31.496
34.675,31.471
34.594,31.448
34.514,31.426
34.434,31.406
34.354,31.387
34.276,31.368
34.198,31.349
34.122,31.33
34.047,31.31
33.973,31.29
33.903,31.267
33.836,31.242
33.774,31.215
33.714,31.186
33.658,31.156
33.603,31.125
33.549,31.093
33.497,31.061
33.445,31.027
33.393,30.994
33.343,30.964
33.294,30.936
33.248,30.913
33.203,30.896
33.16,30.889
33.118,30.891
33.078,30.906
33.038,30.935
32.998,30.983
32.957,31.052
32.914,31.147
32.869,31.273
32.822,31.432
32.771,31.627
32.717,31.861
32.662,32.135
32.604,32.448
32.546,32.8
32.488,33.187
32.432,33.608
32.377,34.059
32.325,34.536
32.276,35.035
32.231,35.549
32.189,36.072
32.151,36.598
32.115,37.12
32.082,37.634
32.051,38.134
32.02,38.616
31.991,39.075
31.962,39.508
31.934,39.914
31.907,40.29
31.881,40.635
