Trial 1:0back,Trial 6:0back
34.454,30.408
34.37,30.379
34.289,30.35
34.212,30.322
34.139,30.293
34.071,30.265
34.006,30.237
33.945,30.208
33.889,30.177
33.835,30.144
33.785,30.109
33.737,30.072
33.692,30.033
33.649,29.992
33.608,29.949
33.57,29.904
33.533,29.857
33.498,29.811
33.464,29.765
33.43,29.722
33.396,29.682
33.363,29.649
33.331,29.626
33.3,29.617
33.271,29.627
33.243,29.663
33.217,29.734
33.192,29.848
33.17,30.012
33.157,30.236
33.155,30.53
33.163,30.9
33.179,31.352
33.201,31.886
33.225,32.5
33.248,33.188
33.269,33.941
33.283,34.747
33.291,35.59
33.29,36.456
33.28,37.329
33.26,38.19
33.232,39.024
33.197,39.818
33.155,40.557
33.109,41.234
33.061,41.841
33.012,42.374
32.964,42.834
32.916,43.22
32.87,43.537
32.826,43.788
32.784,43.979
32.745,44.116
32.709,44.206
32.674,44.258
32.643,44.277
32.614,44.27
32.588,44.244
32.566,44.201
32.547,44.148
32.531,44.085
32.517,44.014
32.506,43.938
32.496,43.856
32.488,43.767
32.481,43.673
32.474,43.572
32.465,43.464
32.454,43.347
32.442,43.222
32.426,43.088
32.407,42.944
32.387,42.792
32.364,42.632
32.34,42.465
32.315,42.292
32.29,42.116
32.266,41.937
32.242,41.758
32.218,41.581
32.195,41.406
32.173,41.236
32.152,41.071
32.133,40.914
32.115,40.765
32.1,40.623
32.086,40.488
32.073,40.358
32.061,40.231
32.05,40.107
32.038,39.985
32.028,39.864
32.018,39.745
32.009,39.627
32,39.508
31.992,39.388
31.984,39.264
31.976,39.136
31.969,39.005
31.961,38.87
31.953,38.733
31.945,38.596
31.936,38.461
31.927,38.329
31.917,38.202
31.907,38.081
31.896,37.967
31.885,37.863
31.872,37.771
31.859,37.69
31.843,37.623
31.825,37.568
31.803,37.526
31.778,37.497
31.749,37.479
31.718,37.47
31.684,37.471
31.651,37.48
31.617,37.494
31.585,37.514
31.553,37.538
31.524,37.563
31.497,37.589
31.475,37.614
31.456,37.636
31.441,37.655
31.431,37.669
31.425,37.678
31.423,37.68
31.425,37.674
31.431,37.661
31.441,37.64
31.458,37.613
31.483,37.58
31.517,37.542
31.564,37.499
31.628,37.45
31.715,37.396
31.828,37.338
31.972,37.276
32.151,37.209
32.37,37.138
32.63,37.061
32.935,36.978
33.287,36.891
33.687,36.799
34.135,36.703
34.628,36.603
35.163,36.499
35.732,36.391
36.329,36.279
36.943,36.162
37.563,36.04
38.179,35.911
38.78,35.775
39.356,35.633
39.897,35.485
40.398,35.334
40.851,35.181
41.252,35.026
41.598,34.869
41.887,34.711
42.121,34.553
42.302,34.396
42.431,34.24
42.514,34.088
42.555,33.94
42.557,33.797
42.524,33.66
42.46,33.528
42.37,33.404
42.261,33.286
42.135,33.177
41.998,33.076
41.854,32.984
41.707,32.899
41.558,32.82
41.411,32.745
41.266,32.674
41.124,32.606
40.985,32.541
40.85,32.48
40.717,32.422
40.588,32.367
40.46,32.315
40.332,32.269
40.205,32.226
40.078,32.189
39.95,32.157
39.821,32.131
39.692,32.111
39.563,32.098
39.434,32.091
39.305,32.09
39.178,32.094
39.051,32.105
38.926,32.12
38.803,32.14
38.681,32.162
38.559,32.183
38.439,32.203
38.32,32.22
38.203,32.233
38.089,32.243
37.977,32.25
37.87,32.253
37.767,32.253
37.67,32.25
37.58,32.244
37.498,32.235
37.424,32.222
37.36,32.205
37.307,32.185
37.266,32.161
37.238,32.134
37.223,32.104
37.223,32.071
37.238,32.037
37.269,32.003
37.316,31.97
37.377,31.94
37.453,31.912
37.542,31.889
37.643,31.868
37.753,31.852
37.87,31.84
37.994,31.832
38.122,31.826
38.251,31.823
38.379,31.822
38.504,31.822
38.622,31.822
38.732,31.82
38.83,31.818
38.914,31.814
38.982,31.808
39.034,31.798
39.069,31.784
39.086,31.764
39.085,31.739
39.067,31.71
39.031,31.678
38.978,31.644
38.908,31.609
38.823,31.573
38.724,31.537
38.609,31.501
38.481,31.464
38.338,31.427
38.183,31.39
38.014,31.352
37.833,31.312
37.64,31.27
37.438,31.226
37.226,31.18
37.007,31.132
36.783,31.083
36.555,31.035
36.326,30.988
36.095,30.943
35.866,30.9
35.64,30.859
35.419,30.818
35.206,30.778
35.004,30.737
34.816,30.696
34.643,30.655
34.487,30.611
34.348,30.566
34.225,30.518
34.119,30.467
34.027,30.414
33.948,30.359
33.879,30.305
33.818,30.25
33.763,30.197
33.711,30.144
33.662,30.093
33.613,30.043
33.565,29.994
33.517,29.948
33.471,29.903
33.425,29.862
33.382,29.823
33.342,29.787
33.304,29.753
33.27,29.721
33.239,29.692
33.211,29.664
33.184,29.638
33.16,29.612
33.137,29.586
33.116,29.559
33.097,29.53
33.079,29.5
33.064,29.469
33.052,29.437
33.042,29.405
33.036,29.374
33.033,29.346
33.035,29.324
33.042,29.312
33.053,29.315
33.068,29.339
33.088,29.391
33.113,29.478
33.143,29.61
33.178,29.794
33.217,30.037
33.261,30.348
33.308,30.731
33.357,31.189
33.408,31.724
33.459,32.334
33.509,33.013
33.555,33.751
33.598,34.539
33.634,35.362
33.665,36.206
33.689,37.056
33.705,37.896
33.714,38.709
33.714,39.483
33.707,40.204
33.692,40.862
33.67,41.451
33.64,41.964
33.603,42.402
33.561,42.766
33.515,43.059
33.466,43.285
33.415,43.45
33.364,43.559
33.313,43.62
33.264,43.639
33.218,43.624
33.174,43.58
33.133,43.513
33.096,43.428
33.064,43.329
33.036,43.219
33.014,43.101
32.998,42.977
32.989,42.849
32.985,42.718
32.989,42.583
32.999,42.443
33.016,42.298
33.04,42.147
33.068,41.99
33.101,41.826
33.137,41.656
33.175,41.481
33.215,41.302
33.256,41.118
33.298,40.929
33.341,40.736
33.385,40.539
33.43,40.34
33.474,40.141
33.518,39.944
33.561,39.749
33.604,39.557
33.644,39.37
33.683,39.187
33.719,39.009
33.752,38.835
33.781,38.665
33.804,38.499
33.819,38.337
33.825,38.178
33.819,38.021
33.801,37.865
33.768,37.711
33.723,37.558
33.664,37.407
33.593,37.258
33.51,37.114
33.418,36.975
33.32,36.842
33.218,36.717
33.114,36.599
33.011,36.491
32.911,36.394
32.817,36.312
32.73,36.243
32.65,36.191
32.579,36.154
32.515,36.133
32.46,36.128
32.411,36.139
32.369,36.166
32.334,36.206
32.304,36.26
32.278,36.324
32.254,36.4
32.232,36.484
32.209,36.576
32.185,36.674
32.159,36.775
32.13,36.879
32.098,36.983
32.063,37.087
32.024,37.188
31.984,37.283
31.942,37.372
31.901,37.452
31.862,37.523
31.827,37.585
31.798,37.638
31.777,37.68
31.767,37.711
31.77,37.73
31.793,37.736
31.838,37.729
31.912,37.71
32.021,37.679
32.171,37.638
32.367,37.586
32.615,37.524
32.919,37.452
33.283,37.369
33.707,37.277
34.189,37.174
34.726,37.062
35.31,36.941
35.934,36.813
36.586,36.677
37.255,36.535
37.929,36.388
38.593,36.236
39.235,36.081
39.842,35.924
40.402,35.765
40.907,35.605
41.351,35.444
41.73,35.282
42.042,35.12
42.289,34.958
42.472,34.799
42.596,34.643
42.665,34.493
42.686,34.348
42.666,34.208
42.612,34.073
42.532,33.942
42.431,33.814
42.315,33.689
42.189,33.565
42.056,33.442
41.919,33.32
41.78,33.199
41.643,33.079
41.506,32.96
41.371,32.841
41.238,32.725
41.107,32.611
40.978,32.5
40.85,32.393
40.724,32.29
40.599,32.191
40.475,32.099
40.354,32.013
40.234,31.935
40.115,31.865
40,31.803
39.887,31.748
39.778,31.7
39.672,31.658
39.569,31.62
39.469,31.586
39.372,31.557
39.275,31.532
39.179,31.511
39.083,31.493
38.986,31.479
38.888,31.467
38.789,31.458
38.688,31.453
38.585,31.451
38.482,31.453
38.377,31.457
38.27,31.463
38.162,31.47
38.051,31.478
37.938,31.487
37.823,31.496
37.707,31.506
37.592,31.515
37.478,31.524
37.367,31.533
37.26,31.541
37.158,31.547
37.06,31.553
36.968,31.557
36.883,31.562
36.808,31.567
36.745,31.571
36.696,31.574
36.66,31.577
36.64,31.581
36.635,31.585
36.646,31.591
36.67,31.598
36.709,31.607
36.762,31.617
36.827,31.628
36.902,31.639
36.984,31.648
37.071,31.656
37.16,31.662
37.248,31.666
37.334,31.667
37.416,31.664
37.494,31.658
37.567,31.649
37.635,31.639
37.697,31.627
37.752,31.615
37.8,31.602
37.839,31.588
37.868,31.573
37.886,31.557
37.893,31.539
37.89,31.518
37.875,31.494
37.849,31.468
37.811,31.438
37.761,31.405
37.697,31.368
37.621,31.329
37.532,31.287
37.433,31.243
37.325,31.198
37.21,31.151
37.089,31.103
36.965,31.051
36.84,30.997
36.714,30.942
36.59,30.885
36.468,30.828
36.348,30.771
36.232,30.716
36.117,30.663
36.006,30.611
35.896,30.561
35.787,30.513
35.68,30.466
35.572,30.42
35.465,30.376
35.358,30.334
35.249,30.292
35.14,30.253
35.03,30.219
34.92,30.192
34.81,30.179
34.7,30.184
34.593,30.215
34.488,30.28
34.386,30.388
34.288,30.546
34.196,30.764
34.109,31.049
34.028,31.407
33.952,31.842
33.881,32.357
33.816,32.949
33.755,33.613
33.7,34.336
33.648,35.109
33.599,35.915
33.552,36.741
33.506,37.569
33.462,38.384
33.418,39.17
33.375,39.915
33.332,40.606
33.289,41.238
33.243,41.805
33.195,42.304
33.144,42.737
33.088,43.104
33.028,43.409
32.964,43.655
32.897,43.848
32.828,43.991
32.759,44.091
32.69,44.155
32.624,44.189
32.56,44.199
32.5,44.188
32.446,44.162
32.396,44.121
32.352,44.068
32.312,44.004
32.276,43.931
32.243,43.849
32.214,43.759
32.187,43.662
32.163,43.557
32.141,43.442
32.12,43.318
32.099,43.183
32.079,43.038
32.059,42.883
32.041,42.719
32.022,42.546
32.004,42.366
31.987,42.18
31.971,41.989
31.955,41.796
31.941,41.603
31.928,41.413
31.916,41.226
31.904,41.046
31.892,40.871
31.88,40.703
31.867,40.54
31.854,40.383
31.839,40.232
31.824,40.085
31.808,39.944
31.792,39.808
31.777,39.675
31.762,39.546
31.748,39.418
31.736,39.291
31.725,39.164
31.715,39.039
31.707,38.913
31.699,38.789
31.691,38.666
31.682,38.543
31.672,38.422
31.662,38.303
31.65,38.187
31.638,38.074
31.624,37.967
31.61,37.866
31.597,37.771
31.583,37.684
31.568,37.604
31.552,37.531
31.537,37.467
31.521,37.413
31.505,37.368
31.489,37.334
31.473,37.312
31.458,37.301
31.442,37.301
31.426,37.311
31.411,37.332
31.397,37.362
31.385,37.4
31.374,37.446
31.366,37.499
31.361,37.558
31.359,37.62
31.36,37.684
31.365,37.748
31.374,37.809
31.387,37.865
31.402,37.915
31.419,37.957
31.439,37.989
31.46,38.011
31.48,38.022
31.499,38.021
31.517,38.009
31.532,37.985
31.544,37.949
31.553,37.902
31.557,37.843
31.559,37.775
31.557,37.696
31.552,37.61
31.544,37.517
31.534,37.418
31.522,37.314
31.508,37.206
31.492,37.095
31.475,36.982
31.457,36.866
31.438,36.749
31.418,36.63
31.393,36.511
31.362,36.393
31.327,36.274
31.288,36.155
31.249,36.036
31.211,35.916
31.177,35.795
31.149,35.673
31.129,35.549
31.116,35.423
31.112,35.297
31.117,35.169
31.131,35.041
31.154,34.913
31.189,34.785
31.237,34.658
31.301,34.532
31.384,34.408
31.492,34.287
31.628,34.169
31.796,34.055
32.002,33.944
32.249,33.839
32.54,33.737
32.88,33.641
33.268,33.548
33.706,33.46
34.194,33.374
34.726,33.291
35.299,33.21
35.906,33.132
36.536,33.057
37.181,32.985
37.829,32.917
38.469,32.855
39.089,32.797
39.68,32.744
40.231,32.696
40.734,32.651
41.183,32.61
41.574,32.572
41.905,32.536
42.176,32.501
42.387,32.467
42.54,32.434
42.64,32.4
42.691,32.366
42.699,32.333
42.669,32.3
42.609,32.269
42.523,32.237
42.416,32.206
42.294,32.176
42.161,32.147
42.02,32.12
41.875,32.097
41.728,32.076
41.582,32.058
41.438,32.042
41.297,32.028
41.16,32.014
41.026,32.001
40.894,31.987
40.764,31.972
40.636,31.955
40.508,31.936
40.381,31.913
40.253,31.885
40.125,31.852
39.996,31.815
39.868,31.775
39.739,31.733
39.61,31.69
39.481,31.647
39.353,31.603
39.226,31.559
39.1,31.515
38.975,31.471
38.851,31.427
38.729,31.384
38.608,31.343
38.488,31.303
38.369,31.265
38.252,31.23
38.137,31.197
38.023,31.165
37.911,31.137
37.802,31.11
37.695,31.086
37.593,31.064
37.495,31.042
37.402,31.02
37.316,30.998
37.238,30.976
37.17,30.953
37.111,30.928
37.064,30.903
37.028,30.877
37.005,30.851
36.993,30.824
36.992,30.795
37.003,30.765
37.024,30.733
37.054,30.698
37.092,30.659
37.136,30.618
37.184,30.574
37.235,30.528
37.289,30.481
37.346,30.435
37.403,30.391
37.462,30.35
37.52,30.313
37.578,30.28
37.635,30.251
37.689,30.225
37.739,30.202
37.786,30.181
37.827,30.162
37.864,30.145
37.895,30.128
37.92,30.111
37.938,30.095
37.949,30.079
37.951,30.064
37.945,30.05
37.928,30.037
37.902,30.024
37.866,30.011
37.82,29.999
37.766,29.986
37.703,29.973
37.635,29.959
37.561,29.945
37.484,29.932
37.402,29.922
37.317,29.919
37.227,29.924
37.133,29.945
37.035,29.987
36.934,30.058
36.829,30.166
36.721,30.32
36.612,30.528
36.501,30.798
36.392,31.137
36.283,31.552
36.175,32.044
36.069,32.613
35.965,33.255
35.863,33.964
35.763,34.729
35.663,35.537
35.565,36.372
35.466,37.218
35.369,38.06
35.271,38.881
35.173,39.667
35.075,40.406
34.977,41.087
34.878,41.702
34.779,42.248
34.681,42.721
34.583,43.121
34.485,43.45
34.388,43.711
34.293,43.909
34.201,44.05
34.112,44.141
34.026,44.19
33.944,44.202
33.866,44.184
33.792,44.144
33.721,44.084
33.653,44.009
33.588,43.923
33.526,43.827
33.466,43.725
33.409,43.617
33.353,43.505
33.3,43.388
33.248,43.266
33.198,43.138
33.149,43.003
33.102,42.861
33.056,42.712
33.011,42.557
32.967,42.395
32.924,42.227
32.882,42.051
32.841,41.87
32.799,41.684
32.757,41.494
32.716,41.303
32.679,41.111
32.648,40.919
32.625,40.729
32.607,40.543
32.594,40.361
32.584,40.184
32.574,40.011
32.565,39.841
32.553,39.671
32.539,39.501
32.522,39.331
32.502,39.164
32.48,38.997
32.457,38.832
32.434,38.668
32.413,38.504
32.394,38.341
32.378,38.178
32.366,38.016
32.357,37.857
32.354,37.701
32.355,37.549
32.361,37.403
32.369,37.265
32.38,37.137
32.392,37.021
32.406,36.918
32.42,36.83
32.436,36.758
32.452,36.704
32.468,36.668
32.484,36.651
32.499,36.652
32.512,36.67
32.523,36.704
32.532,36.753
32.538,36.816
32.54,36.891
32.539,36.978
32.533,37.072
32.522,37.17
32.506,37.27
32.486,37.372
32.46,37.475
32.432,37.577
32.401,37.679
32.367,37.778
32.333,37.871
32.297,37.958
32.26,38.036
32.225,38.104
32.191,38.163
32.158,38.21
32.129,38.245
32.101,38.267
32.076,38.278
32.051,38.277
32.026,38.264
32,38.241
31.974,38.206
31.946,38.16
31.918,38.101
31.889,38.033
31.859,37.954
31.829,37.867
31.798,37.771
31.768,37.669
31.739,37.561
31.711,37.448
31.684,37.331
31.659,37.21
31.636,37.084
31.614,36.953
31.593,36.817
31.573,36.676
31.552,36.532
31.53,36.386
31.507,36.237
31.482,36.085
31.456,35.931
31.429,35.774
31.401,35.615
31.371,35.455
31.341,35.295
31.311,35.136
31.281,34.98
31.254,34.828
31.231,34.681
31.214,34.54
31.204,34.406
31.204,34.278
31.216,34.156
31.243,34.039
31.289,33.928
31.356,33.821
31.448,33.718
31.571,33.618
31.727,33.519
31.922,33.423
32.157,33.329
32.438,33.238
32.766,33.15
33.142,33.067
33.567,32.987
34.038,32.912
34.552,32.843
35.104,32.778
35.686,32.719
36.29,32.665
36.906,32.617
37.526,32.573
38.137,32.535
38.732,32.5
39.299,32.468
39.831,32.44
40.321,32.414
40.763,32.39
41.156,32.368
41.497,32.348
41.787,32.328
42.026,32.307
42.219,32.285
42.369,32.263
42.481,32.242
42.558,32.221
42.601,32.201
42.615,32.181
42.603,32.16
42.572,32.139
42.525,32.117
42.466,32.095
42.401,32.072
42.331,32.048
42.258,32.025
42.185,32.002
42.113,31.98
42.04,31.957
41.966,31.935
41.892,31.915
41.815,31.896
41.736,31.878
41.654,31.862
41.568,31.848
41.478,31.834
41.384,31.821
41.285,31.809
41.181,31.798
41.071,31.789
40.956,31.782
40.835,31.777
40.711,31.774
40.583,31.774
40.453,31.774
40.32,31.774
40.185,31.775
40.047,31.775
39.907,31.773
39.765,31.768
39.621,31.76
39.476,31.748
39.33,31.733
39.184,31.715
39.04,31.695
38.898,31.672
38.759,31.648
38.624,31.621
38.494,31.593
38.37,31.563
38.254,31.531
38.146,31.498
38.047,31.464
37.958,31.427
37.879,31.388
37.811,31.347
37.755,31.304
37.708,31.259
37.672,31.213
37.646,31.167
37.628,31.121
37.617,31.077
37.612,31.035
37.613,30.997
37.621,30.966
37.633,30.945
37.65,30.939
37.671,30.954
37.695,30.999
37.721,31.078
37.749,31.202
37.775,31.378
37.801,31.614
37.824,31.913
37.843,32.281
37.859,32.718
37.87,33.222
37.876,33.789
37.877,34.411
37.874,35.077
37.864,35.779
37.849,36.503
37.83,37.236
37.805,37.964
37.777,38.673
37.745,39.352
37.71,39.989
37.671,40.576
37.628,41.107
37.581,41.576
37.53,41.984
37.475,42.328
37.415,42.611
37.35,42.836
37.28,43.005
37.204,43.125
37.123,43.2
37.037,43.236
36.946,43.24
36.852,43.218
36.755,43.175
36.656,43.115
36.557,43.042
36.457,42.958
36.357,42.865
36.256,42.765
36.155,42.659
36.054,42.549
35.951,42.434
35.849,42.315
35.747,42.191
35.646,42.061
35.546,41.924
35.446,41.779
35.347,41.628
35.25,41.469
35.155,41.306
35.06,41.137
34.967,40.965
34.876,40.79
34.786,40.614
34.698,40.438
34.612,40.263
34.529,40.09
34.448,39.92
34.372,39.751
34.299,39.585
34.23,39.42
34.164,39.256
34.102,39.093
34.041,38.932
33.982,38.771
33.923,38.611
33.864,38.451
33.805,38.293
33.746,38.133
33.689,37.973
33.634,37.813
33.582,37.652
33.534,37.491
33.491,37.33
33.452,37.171
33.418,37.015
33.387,36.863
33.358,36.716
33.331,36.577
33.304,36.447
33.278,36.328
33.25,36.223
33.221,36.132
33.19,36.057
33.158,35.996
33.124,35.951
33.09,35.921
33.057,35.907
33.023,35.909
32.991,35.926
32.959,35.958
32.928,36.005
32.898,36.065
32.868,36.135
32.841,36.214
32.814,36.301
32.79,36.393
32.768,36.488
32.748,36.586
32.731,36.683
32.716,36.778
32.702,36.869
32.691,36.954
32.681,37.031
32.672,37.099
32.664,37.155
32.657,37.199
32.65,37.229
32.642,37.246
32.634,37.248
32.626,37.237
32.617,37.213
32.606,37.176
32.595,37.127
32.583,37.068
32.569,36.998
32.555,36.918
32.54,36.827
32.523,36.727
32.506,36.619
32.488,36.503
32.468,36.38
32.448,36.252
32.427,36.118
32.405,35.978
32.382,35.833
32.359,35.683
32.336,35.528
32.313,35.37
32.291,35.21
32.269,35.048
32.249,34.886
32.231,34.724
32.215,34.563
32.201,34.403
32.19,34.246
32.18,34.09
32.17,33.938
32.16,33.789
32.15,33.642
32.138,33.499
32.126,33.358
32.113,33.221
32.098,33.089
32.083,32.961
32.068,32.841
32.052,32.729
32.036,32.628
32.019,32.538
32.003,32.461
31.985,32.395
31.966,32.341
31.946,32.298
31.924,32.263
31.9,32.236
31.876,32.215
31.85,32.196
31.824,32.18
31.798,32.164
31.772,32.148
31.747,32.132
31.723,32.117
31.698,32.101
31.675,32.084
31.652,32.065
31.629,32.045
31.607,32.023
31.587,32.002
31.568,31.98
31.55,31.96
31.532,31.942
31.514,31.926
31.496,31.912
31.477,31.903
31.459,31.896
31.442,31.893
31.427,31.893
31.414,31.895
31.404,31.899
31.397,31.904
31.392,31.907
31.391,31.909
31.393,31.909
31.397,31.908
31.404,31.905
31.414,31.898
31.428,31.888
31.446,31.872
31.471,31.851
31.507,31.824
31.558,31.791
31.628,31.754
31.724,31.711
31.851,31.664
32.016,31.615
32.226,31.564
32.486,31.512
32.802,31.462
33.177,31.413
33.609,31.369
34.097,31.328
34.636,31.292
35.22,31.259
35.84,31.23
36.483,31.203
37.138,31.18
37.79,31.159
38.425,31.141
39.031,31.123
39.596,31.107
40.112,31.092
40.571,31.078
40.971,31.064
41.307,31.05
41.581,31.036
41.792,31.022
41.945,31.008
42.044,30.991
42.093,30.972
42.099,30.95
42.069,30.926
42.009,30.899
41.925,30.872
41.824,30.842
41.709,30.812
41.584,30.78
41.452,30.746
41.315,30.711
41.175,30.676
41.033,30.64
40.89,30.604
40.746,30.568
40.602,30.531
40.458,30.493
40.315,30.452
40.171,30.41
40.027,30.367
39.882,30.325
39.737,30.284
39.591,30.245
39.447,30.21
39.303,30.181
39.16,30.161
39.019,30.156
38.88,30.171
38.743,30.216
38.608,30.298
38.475,30.429
38.346,30.618
38.219,30.873
38.097,31.202
37.978,31.61
37.863,32.098
37.752,32.665
37.644,33.307
37.54,34.015
37.44,34.776
37.344,35.576
37.253,36.397
37.166,37.223
37.081,38.038
37,38.825
36.919,39.571
36.841,40.261
36.765,40.887
36.692,41.44
36.625,41.915
36.565,42.312
36.514,42.63
36.474,42.873
36.446,43.047
36.432,43.157
36.432,43.209
36.445,43.211
36.472,43.169
36.512,43.092
36.562,42.986
36.623,42.858
36.69,42.714
36.764,42.56
36.841,42.399
36.919,42.232
36.999,42.06
37.078,41.886
37.156,41.71
37.231,41.535
37.303,41.362
37.368,41.193
37.427,41.026
37.477,40.863
37.518,40.702
37.549,40.544
37.57,40.387
37.58,40.231
37.58,40.076
37.57,39.92
37.551,39.763
37.523,39.605
37.488,39.446
37.446,39.286
37.397,39.126
37.342,38.964
37.281,38.802
37.213,38.639
37.14,38.476
37.059,38.313
36.973,38.15
36.882,37.988
36.786,37.828
36.685,37.669
36.581,37.514
36.475,37.362
36.366,37.214
36.256,37.07
36.144,36.928
36.032,36.789
35.92,36.652
35.81,36.518
35.701,36.387
35.594,36.259
35.488,36.133
35.384,36.011
35.281,35.893
35.178,35.781
35.075,35.677
34.973,35.582
34.873,35.497
34.773,35.424
34.676,35.364
34.584,35.318
34.496,35.286
34.413,35.269
34.337,35.267
34.267,35.279
34.202,35.304
34.143,35.341
34.089,35.389
34.038,35.446
33.991,35.509
33.946,35.577
33.904,35.648
33.863,35.72
33.822,35.794
33.782,35.868
33.743,35.942
33.704,36.014
33.666,36.082
33.631,36.145
33.596,36.202
33.563,36.255
33.531,36.301
33.5,36.34
33.471,36.372
33.443,36.394
33.416,36.407
33.391,36.411
33.368,36.405
33.346,36.39
33.327,36.365
33.31,36.33
33.294,36.286
33.28,36.234
33.267,36.173
33.255,36.103
33.243,36.026
33.231,35.942
33.221,35.85
33.211,35.752
33.203,35.648
33.195,35.537
33.189,35.42
33.184,35.298
33.18,35.171
33.176,35.041
33.172,34.909
33.168,34.776
33.163,34.643
33.156,34.51
33.148,34.378
33.137,34.247
33.123,34.116
33.106,33.987
33.087,33.86
33.066,33.736
33.042,33.615
33.017,33.498
32.99,33.386
32.963,33.278
32.934,33.175
32.906,33.077
32.877,32.984
32.848,32.895
32.82,32.809
32.792,32.724
32.765,32.64
32.737,32.558
32.709,32.479
32.68,32.403
32.649,32.331
32.617,32.264
32.584,32.203
32.551,32.145
32.519,32.091
32.488,32.04
32.458,31.992
32.43,31.947
32.404,31.905
32.379,31.868
32.357,31.834
32.337,31.801
32.318,31.771
32.301,31.742
32.284,31.715
32.268,31.689
32.253,31.664
32.24,31.64
32.229,31.617
32.221,31.594
32.214,31.57
32.209,31.547
32.204,31.524
32.199,31.502
32.192,31.481
32.184,31.46
32.174,31.44
32.161,31.419
32.147,31.398
32.131,31.377
32.113,31.356
32.096,31.336
32.077,31.317
32.057,31.3
32.037,31.285
32.016,31.271
31.995,31.26
31.974,31.251
31.953,31.244
31.933,31.239
31.914,31.236
31.897,31.234
31.882,31.231
31.869,31.227
31.857,31.222
31.848,31.215
31.839,31.206
31.833,31.195
31.829,31.184
31.827,31.171
31.828,31.158
31.834,31.145
31.843,31.132
31.858,31.12
31.879,31.109
31.907,31.098
31.946,31.088
31.999,31.077
32.069,31.063
32.163,31.047
32.287,31.028
32.448,31.007
32.657,30.983
32.92,30.956
33.244,30.926
33.632,30.893
34.086,30.858
34.602,30.821
35.173,30.783
35.79,30.745
36.441,30.707
37.113,30.669
37.791,30.633
38.459,30.598
39.105,30.563
39.714,30.531
40.276,30.5
40.781,30.474
41.224,30.454
41.601,30.444
41.908,30.446
42.148,30.465
42.322,30.508
42.435,30.583
42.492,30.697
42.499,30.858
42.462,31.074
42.389,31.35
42.286,31.691
42.16,32.1
42.018,32.575
41.863,33.116
41.702,33.714
41.536,34.363
41.369,35.052
41.201,35.767
41.034,36.495
40.869,37.221
40.707,37.932
40.548,38.615
40.391,39.258
40.236,39.85
40.081,40.383
39.928,40.85
39.775,41.25
39.622,41.58
39.47,41.843
39.32,42.042
39.172,42.181
39.028,42.267
38.89,42.306
38.757,42.306
38.631,42.271
38.512,42.211
38.401,42.13
38.299,42.033
38.204,41.925
38.117,41.806
38.037,41.679
37.961,41.545
37.89,41.405
37.821,41.258
37.753,41.107
37.685,40.951
37.616,40.791
37.545,40.628
37.472,40.462
37.399,40.292
37.325,40.119
37.252,39.943
37.18,39.763
37.112,39.581
37.047,39.398
36.987,39.217
36.933,39.039
36.884,38.863
36.841,38.69
36.806,38.521
36.778,38.356
36.758,38.195
36.747,38.037
36.745,37.883
36.75,37.733
36.763,37.585
36.784,37.438
36.811,37.293
36.844,37.146
36.882,37
36.923,36.852
36.967,36.704
37.013,36.556
37.059,36.407
37.103,36.259
37.146,36.113
37.188,35.969
37.228,35.829
37.265,35.692
37.297,35.56
37.324,35.435
37.345,35.317
37.357,35.208
37.36,35.107
37.355,35.017
37.34,34.939
37.318,34.875
37.289,34.828
37.252,34.797
37.208,34.783
37.159,34.787
37.103,34.809
37.043,34.847
36.976,34.901
36.904,34.97
36.826,35.052
36.743,35.143
36.655,35.243
36.562,35.349
36.465,35.459
36.363,35.571
36.257,35.682
36.148,35.793
36.037,35.9
35.925,36.003
35.813,36.1
35.702,36.189
35.591,36.269
35.481,36.337
35.373,36.393
35.266,36.436
35.161,36.468
35.058,36.488
34.958,36.497
34.859,36.494
34.763,36.477
34.669,36.448
34.579,36.407
34.491,36.353
34.408,36.289
34.328,36.215
34.251,36.132
34.176,36.042
34.104,35.946
34.034,35.846
33.967,35.743
33.902,35.637
33.84,35.53
33.779,35.421
33.721,35.311
33.664,35.2
33.609,35.089
33.558,34.978
33.51,34.867
33.467,34.757
33.429,34.647
33.395,34.538
33.366,34.428
33.341,34.317
33.32,34.204
33.301,34.089
33.284,33.971
33.27,33.852
33.257,33.732
33.244,33.613
33.232,33.495
33.218,33.381
33.205,33.27
33.192,33.162
33.18,33.058
33.17,32.958
33.161,32.861
33.154,32.769
33.148,32.679
33.143,32.592
33.138,32.509
33.134,32.429
33.13,32.352
33.125,32.281
33.118,32.217
33.109,32.166
33.099,32.124
33.089,32.091
33.077,32.065
33.064,32.043
33.052,32.021
33.039,31.997
33.026,31.969
33.012,31.936
32.998,31.899
32.985,31.857
32.972,31.811
32.96,31.761
32.948,31.711
32.937,31.66
32.925,31.611
32.913,31.565
32.901,31.521
32.889,31.48
32.877,31.443
32.865,31.41
32.854,31.381
32.843,31.357
32.832,31.338
32.82,31.322
32.807,31.31
32.792,31.301
32.775,31.295
32.755,31.29
32.733,31.286
32.708,31.282
32.682,31.279
32.655,31.275
32.629,31.271
32.603,31.265
32.578,31.257
32.553,31.249
32.527,31.24
32.499,31.231
32.469,31.222
32.439,31.213
32.408,31.204
32.377,31.195
32.346,31.186
32.317,31.176
32.288,31.165
32.262,31.153
32.236,31.141
32.213,31.128
32.193,31.116
32.175,31.105
32.159,31.095
32.145,31.086
32.133,31.08
32.123,31.076
32.113,31.074
32.106,31.073
32.101,31.075
32.097,31.08
32.095,31.091
32.093,31.111
32.093,31.143
32.092,31.194
32.091,31.27
32.089,31.378
32.086,31.527
32.082,31.722
32.078,31.971
32.072,32.279
32.065,32.65
32.057,33.083
32.047,33.577
32.036,34.128
32.022,34.727
32.006,35.366
31.987,36.033
31.966,36.713
31.941,37.393
31.915,38.057
31.889,38.691
31.863,39.282
31.839,39.821
31.817,40.299
31.798,40.712
31.783,41.057
31.771,41.334
31.764,41.544
31.762,41.691
31.766,41.779
31.775,41.812
31.792,41.799
31.817,41.747
31.852,41.661
31.899,41.55
31.963,41.418
32.049,41.271
32.164,41.114
32.315,40.951
32.509,40.784
32.752,40.616
33.051,40.448
33.407,40.281
33.823,40.116
34.295,39.952
34.818,39.788
35.386,39.622
35.988,39.455
36.612,39.286
37.246,39.116
37.878,38.945
38.493,38.773
39.081,38.6
39.629,38.428
40.132,38.256
40.582,38.086
40.976,37.919
41.311,37.756
41.588,37.596
41.807,37.441
41.97,37.29
42.081,37.144
42.144,37.003
42.164,36.868
42.145,36.738
42.093,36.615
42.013,36.497
41.909,36.384
41.786,36.275
41.648,36.169
41.498,36.064
41.338,35.957
41.171,35.843
40.997,35.718
40.819,35.581
40.637,35.436
40.452,35.285
40.266,35.133
40.078,34.984
39.889,34.843
39.699,34.715
39.509,34.601
39.32,34.505
39.133,34.428
38.949,34.371
38.77,34.333
38.596,34.315
38.429,34.315
38.269,34.333
38.118,34.368
37.974,34.417
37.839,34.478
37.713,34.55
37.596,34.631
37.486,34.718
37.384,34.81
37.287,34.905
37.194,35.002
37.104,35.099
37.015,35.194
36.928,35.284
36.842,35.37
36.757,35.45
36.675,35.523
36.595,35.589
36.519,35.648
36.447,35.7
36.38,35.745
36.319,35.783
36.263,35.814
36.212,35.836
36.168,35.849
36.131,35.854
36.102,35.85
36.082,35.837
36.07,35.816
36.069,35.787
36.078,35.749
36.097,35.703
36.126,35.65
36.166,35.589
36.216,35.521
36.275,35.446
36.342,35.365
36.415,35.278
36.493,35.186
36.574,35.09
36.656,34.988
36.737,34.883
36.815,34.774
36.889,34.662
36.957,34.547
37.018,34.428
37.071,34.305
37.116,34.178
37.151,34.048
37.177,33.918
37.194,33.788
37.202,33.66
37.202,33.534
37.194,33.41
37.179,33.288
37.159,33.168
37.133,33.052
37.101,32.939
37.064,32.831
37.02,32.727
36.97,32.628
36.914,32.535
36.852,32.445
36.786,32.361
36.715,32.281
36.64,32.207
36.563,32.138
36.484,32.076
36.403,32.018
36.326,31.965
36.255,31.915
36.19,31.868
36.13,31.825
36.074,31.786
36.016,31.751
35.957,31.719
35.892,31.692
35.822,31.669
35.745,31.649
35.661,31.632
35.569,31.617
35.472,31.603
35.37,31.59
35.265,31.576
35.159,31.56
35.054,31.541
34.95,31.519
34.849,31.495
34.752,31.471
34.661,31.448
34.577,31.428
34.5,31.41
34.432,31.395
34.371,31.382
34.317,31.373
34.268,31.366
34.225,31.361
34.187,31.355
34.154,31.343
34.127,31.327
34.102,31.306
34.081,31.284
34.064,31.264
34.049,31.247
34.035,31.237
34.023,31.234
34.012,31.238
34.002,31.25
33.992,31.267
33.982,31.29
33.972,31.316
33.963,31.346
33.955,31.376
33.947,31.407
33.941,31.435
33.936,31.459
33.931,31.479
33.927,31.494
33.924,31.503
33.923,31.505
33.922,31.501
33.923,31.489
33.925,31.471
33.926,31.445
33.928,31.414
33.93,31.379
33.932,31.341
33.933,31.304
33.933,31.268
33.933,31.234
33.932,31.203
33.93,31.174
33.928,31.15
33.924,31.131
33.92,31.119
33.915,31.116
33.909,31.125
33.899,31.151
33.888,31.199
33.873,31.278
33.857,31.395
33.839,31.559
33.82,31.777
33.8,32.056
33.779,32.401
33.756,32.814
33.732,33.293
33.707,33.835
33.68,34.431
33.653,35.072
33.626,35.745
33.6,36.437
33.573,37.133
33.546,37.817
33.519,38.474
33.492,39.088
33.465,39.649
33.438,40.146
33.412,40.576
33.388,40.936
33.365,41.226
33.345,41.447
33.326,41.601
33.31,41.693
33.295,41.728
33.283,41.714
33.27,41.658
33.257,41.567
33.244,41.449
33.23,41.31
33.215,41.157
33.198,40.993
33.18,40.823
33.16,40.65
33.139,40.477
33.115,40.305
33.089,40.136
33.061,39.97
33.031,39.806
32.999,39.645
32.965,39.486
32.93,39.328
32.895,39.169
32.86,39.01
32.825,38.85
32.792,38.689
32.76,38.528
32.731,38.366
32.704,38.204
32.678,38.044
32.654,37.886
32.632,37.731
32.613,37.581
32.597,37.436
32.587,37.296
32.584,37.163
32.59,37.034
32.608,36.91
32.642,36.791
32.697,36.679
32.778,36.572
32.893,36.471
33.049,36.374
33.251,36.279
33.504,36.187
33.814,36.094
34.179,36.002
34.601,35.908
35.075,35.812
35.596,35.713
36.152,35.613
36.735,35.513
37.331,35.414
37.928,35.317
38.512,35.225
39.072,35.138
39.596,35.057
40.078,34.984
40.508,34.92
40.884,34.867
41.2,34.826
41.456,34.796
41.653,34.778
41.793,34.773
41.88,34.781
41.92,34.8
41.917,34.831
41.876,34.872
41.803,34.922
41.704,34.978
41.583,35.04
41.446,35.109
41.296,35.183
41.137,35.264
40.973,35.35
40.807,35.438
40.64,35.527
40.474,35.615
40.311,35.7
40.151,35.78
39.994,35.854
39.843,35.921
39.696,35.979
39.553,36.027
39.415,36.066
39.28,36.093
39.149,36.109
39.02,36.114
38.895,36.108
38.771,36.091
38.651,36.065
38.534,36.029
38.42,35.983
38.311,35.928
38.207,35.865
38.109,35.794
38.017,35.718
37.929,35.637
37.847,35.551
37.77,35.462
37.698,35.369
37.629,35.274
37.565,35.176
37.502,35.076
37.441,34.976
37.381,34.874
37.321,34.77
37.26,34.663
37.197,34.552
37.134,34.437
37.07,34.32
37.006,34.2
36.941,34.077
36.879,33.953
36.819,33.828
36.765,33.701
36.716,33.575
36.674,33.449
36.64,33.326
36.613,33.206
36.595,33.09
36.584,32.978
36.581,32.871
36.584,32.77
36.595,32.676
36.612,32.589
36.636,32.509
36.666,32.435
36.701,32.367
36.74,32.304
36.783,32.244
36.828,32.188
36.874,32.134
36.92,32.083
36.964,32.035
37.005,31.989
37.042,31.947
37.072,31.906
37.094,31.869
37.109,31.835
37.115,31.803
37.112,31.775
37.1,31.75
37.079,31.729
37.049,31.711
37.011,31.696
36.964,31.683
36.911,31.671
36.854,31.662
36.792,31.654
36.728,31.647
36.66,31.642
36.589,31.638
36.516,31.634
36.439,31.631
36.359,31.628
36.276,31.625
36.189,31.622
36.098,31.621
36.005,31.62
35.91,31.62
35.814,31.622
35.717,31.625
35.621,31.629
35.526,31.635
35.432,31.643
35.341,31.653
35.251,31.664
35.164,31.675
35.08,31.686
34.997,31.695
34.917,31.705
34.838,31.714
34.762,31.722
34.689,31.731
34.619,31.739
34.553,31.747
34.491,31.755
34.433,31.761
34.379,31.767
34.329,31.773
34.282,31.778
34.239,31.782
34.198,31.784
34.159,31.783
34.123,31.778
34.09,31.768
34.059,31.754
34.031,31.737
34.006,31.717
33.984,31.696
33.965,31.673
33.949,31.648
33.934,31.622
33.92,31.597
33.908,31.574
33.896,31.554
33.884,31.537
33.873,31.524
33.862,31.515
33.852,31.508
33.843,31.503
33.835,31.499
33.827,31.496
33.822,31.493
33.817,31.488
33.813,31.48
33.808,31.469
33.805,31.454
33.802,31.434
33.801,31.41
33.806,31.383
33.819,31.353
33.84,31.322
33.868,31.289
33.898,31.256
33.927,31.222
33.954,31.189
33.975,31.155
33.988,31.122
33.993,31.09
33.988,31.058
33.975,31.028
33.954,31.001
33.926,30.98
33.894,30.969
33.86,30.973
33.826,31
33.791,31.059
33.759,31.157
33.73,31.306
33.703,31.514
33.68,31.789
33.659,32.139
33.641,32.569
33.626,33.078
33.611,33.664
33.596,34.32
33.581,35.035
33.566,35.795
33.55,36.582
33.534,37.379
33.516,38.167
33.497,38.929
33.476,39.647
33.453,40.309
33.428,40.902
33.402,41.417
33.375,41.849
33.347,42.198
33.318,42.463
33.289,42.649
33.259,42.761
33.231,42.806
33.204,42.793
33.18,42.731
33.159,42.628
33.141,42.493
33.125,42.333
33.11,42.155
33.096,41.966
33.083,41.771
33.069,41.573
33.055,41.377
33.042,41.182
33.028,40.991
33.014,40.804
32.998,40.621
32.98,40.441
32.959,40.265
32.936,40.091
32.912,39.918
32.885,39.747
32.857,39.575
32.827,39.402
32.796,39.23
32.764,39.058
32.732,38.888
32.702,38.721
32.673,38.556
32.646,38.393
32.622,38.232
32.6,38.072
32.58,37.915
32.562,37.762
32.547,37.612
32.533,37.468
32.521,37.33
32.51,37.199
32.499,37.075
32.489,36.957
32.481,36.844
32.476,36.737
32.475,36.634
32.481,36.535
32.497,36.44
32.527,36.347
32.574,36.256
32.644,36.167
32.744,36.082
32.88,36.001
33.058,35.924
33.284,35.851
33.562,35.78
33.892,35.71
34.274,35.641
34.707,35.572
35.184,35.504
35.699,35.436
36.241,35.371
36.802,35.31
37.368,35.254
37.929,35.204
38.472,35.16
38.987,35.124
39.463,35.098
39.893,35.085
40.272,35.084
40.597,35.098
40.867,35.127
41.08,35.17
41.24,35.227
41.348,35.297
41.408,35.378
41.426,35.468
41.405,35.563
41.352,35.662
41.27,35.761
41.167,35.86
41.046,35.954
40.913,36.043
40.771,36.123
40.624,36.194
40.475,36.253
40.325,36.301
40.175,36.336
40.026,36.358
39.88,36.365
39.735,36.358
39.593,36.337
39.453,36.304
39.314,36.262
39.177,36.21
39.043,36.15
38.911,36.083
38.782,36.009
38.657,35.928
38.536,35.843
38.421,35.753
38.312,35.66
38.208,35.564
38.111,35.466
38.018,35.367
37.931,35.268
37.848,35.17
37.77,35.073
37.695,34.978
37.624,34.883
37.553,34.788
37.485,34.691
37.417,34.593
37.35,34.493
37.283,34.39
37.217,34.284
37.151,34.175
37.087,34.064
37.024,33.953
36.963,33.84
36.905,33.728
36.85,33.616
36.8,33.505
36.753,33.396
36.711,33.289
36.675,33.184
36.645,33.083
36.622,32.985
36.605,32.892
36.597,32.804
36.597,32.722
36.608,32.646
36.628,32.575
36.659,32.509
36.699,32.447
36.748,32.388
36.803,32.333
36.862,32.279
36.924,32.228
36.987,32.179
37.05,32.135
37.112,32.095
37.175,32.06
37.243,32.031
37.315,32.006
37.388,31.985
37.459,31.968
37.524,31.956
37.579,31.947
37.622,31.941
37.651,31.938
37.665,31.937
37.664,31.939
37.648,31.944
37.617,31.951
37.573,31.961
37.516,31.974
37.448,31.988
37.37,32.004
37.284,32.018
37.192,32.031
37.095,32.04
36.995,32.047
36.893,32.051
36.792,32.054
36.692,32.054
36.594,32.054
36.498,32.053
36.406,32.052
36.318,32.052
36.233,32.054
36.15,32.056
36.072,32.059
35.996,32.062
35.924,32.065
35.854,32.068
35.785,32.073
35.718,32.079
35.651,32.086
35.584,32.094
35.517,32.103
35.451,32.111
35.387,32.118
35.324,32.122
35.262,32.122
35.203,32.12
35.146,32.114
35.091,32.106
35.039,32.094
34.99,32.079
34.944,32.062
34.901,32.044
34.861,32.025
34.825,32.006
34.791,31.987
34.76,31.968
34.73,31.948
34.703,31.927
34.676,31.904
34.651,31.879
34.627,31.852
34.605,31.825
34.584,31.798
34.566,31.773
34.55,31.749
34.537,31.725
34.527,31.702
34.52,31.678
34.515,31.654
34.511,31.63
34.51,31.606
34.509,31.582
34.51,31.557
34.513,31.531
34.517,31.505
34.522,31.479
34.526,31.452
34.529,31.427
34.53,31.404
34.529,31.382
34.526,31.362
34.52,31.343
34.514,31.324
34.504,31.305
34.493,31.287
34.481,31.27
34.468,31.253
34.454,31.237
34.44,31.22
34.425,31.201
34.412,31.181
34.398,31.158
34.383,31.132
34.368,31.103
34.352,31.07
34.337,31.033
34.322,30.993
34.308,30.95
34.295,30.907
34.283,30.869
34.271,30.838
34.26,30.822
34.249,30.827
34.238,30.86
34.227,30.93
34.214,31.048
34.2,31.222
34.184,31.462
34.168,31.776
34.15,32.169
34.132,32.643
34.113,33.198
34.095,33.828
34.076,34.524
34.058,35.273
34.039,36.061
34.02,36.868
34.001,37.678
33.98,38.47
33.957,39.226
33.932,39.931
33.906,40.571
33.877,41.135
33.845,41.616
33.812,42.01
33.777,42.316
33.741,42.538
33.703,42.68
33.664,42.748
33.624,42.752
33.582,42.701
33.54,42.604
33.495,42.469
33.45,42.306
33.404,42.122
33.358,41.926
33.312,41.723
33.266,41.518
33.222,41.314
33.181,41.114
33.142,40.92
33.106,40.73
33.075,40.547
33.05,40.369
33.031,40.195
33.018,40.024
33.014,39.853
33.019,39.681
33.034,39.505
33.061,39.327
33.103,39.144
33.163,38.959
33.247,38.77
33.359,38.579
33.504,38.386
33.688,38.194
33.914,38.003
34.186,37.816
34.505,37.635
34.87,37.459
35.278,37.289
35.723,37.126
36.2,36.969
36.699,36.818
37.212,36.672
37.727,36.531
38.236,36.394
38.728,36.262
39.193,36.133
39.624,36.008
40.015,35.886
40.36,35.767
40.657,35.651
40.905,35.54
41.102,35.435
41.25,35.337
41.352,35.245
41.41,35.16
41.429,35.081
41.411,35.008
41.362,34.942
41.286,34.882
41.187,34.83
41.069,34.785
40.936,34.75
40.793,34.724
40.643,34.71
40.489,34.709
40.334,34.721
40.181,34.748
40.03,34.79
39.884,34.848
39.744,34.922
39.611,35.01
39.485,35.11
39.364,35.221
39.249,35.34
39.139,35.466
39.033,35.597
38.932,35.73
38.835,35.862
38.744,35.99
38.658,36.113
38.577,36.228
38.502,36.334
38.432,36.43
38.367,36.515
38.307,36.587
38.249,36.647
38.194,36.693
38.139,36.726
38.084,36.746
38.029,36.752
37.971,36.746
37.91,36.726
37.845,36.695
37.777,36.653
37.704,36.599
37.627,36.536
37.548,36.463
37.466,36.382
37.385,36.295
37.305,36.204
37.228,36.11
37.157,36.013
37.092,35.915
37.034,35.813
36.984,35.71
36.943,35.605
36.91,35.499
36.887,35.392
36.873,35.284
36.87,35.175
36.876,35.064
36.892,34.951
36.915,34.836
36.944,34.718
36.975,34.598
37.008,34.475
37.041,34.351
37.076,34.224
37.111,34.098
37.148,33.972
37.186,33.849
37.223,33.729
37.26,33.614
37.295,33.505
37.328,33.401
37.356,33.302
37.379,33.207
37.395,33.117
37.405,33.03
37.408,32.948
37.403,32.87
37.39,32.796
37.371,32.726
37.346,32.659
37.315,32.595
37.278,32.534
37.237,32.477
37.191,32.422
37.14,32.37
37.084,32.32
37.025,32.272
36.961,32.226
36.894,32.182
36.823,32.14
36.748,32.101
36.67,32.066
36.588,32.036
36.506,32.012
36.422,31.994
36.337,31.98
36.252,31.97
36.167,31.962
36.083,31.957
35.998,31.952
35.914,31.949
35.831,31.947
35.75,31.945
35.669,31.943
35.589,31.944
35.509,31.946
35.43,31.95
35.351,31.956
35.273,31.965
35.198,31.976
35.125,31.988
35.056,31.999
34.99,32.008
34.929,32.016
34.873,32.023
34.82,32.029
34.771,32.036
34.725,32.042
34.683,32.048
34.645,32.054
34.61,32.06
34.579,32.066
34.551,32.071
34.526,32.077
34.503,32.083
34.482,32.09
34.464,32.098
34.448,32.107
34.433,32.117
34.418,32.13
34.405,32.144
34.391,32.159
34.378,32.174
34.363,32.188
34.347,32.199
34.33,32.204
34.312,32.204
34.292,32.199
34.272,32.19
34.254,32.177
34.236,32.161
34.22,32.144
34.204,32.126
34.189,32.108
34.175,32.089
34.16,32.071
34.145,32.054
34.128,32.037
34.112,32.021
34.095,32.007
34.079,31.992
34.065,31.978
34.052,31.963
34.041,31.95
34.033,31.936
34.026,31.922
34.023,31.906
34.021,31.887
34.02,31.864
34.02,31.838
34.02,31.807
34.02,31.774
34.021,31.739
34.022,31.704
34.024,31.672
34.026,31.645
34.028,31.627
34.03,31.622
34.03,31.637
34.028,31.679
34.025,31.755
34.019,31.873
34.01,32.043
33.996,32.271
33.978,32.566
33.956,32.933
33.931,33.375
33.903,33.894
33.874,34.486
33.842,35.145
33.81,35.858
33.777,36.609
33.746,37.38
33.717,38.154
33.69,38.915
33.665,39.646
33.643,40.333
33.622,40.962
33.605,41.524
33.591,42.009
33.582,42.413
33.578,42.734
33.58,42.972
33.59,43.133
33.606,43.222
33.63,43.246
33.66,43.214
33.696,43.133
33.737,43.011
33.785,42.857
33.838,42.679
33.896,42.485
33.961,42.28
34.029,42.071
34.102,41.86
34.179,41.65
34.258,41.443
34.339,41.24
34.422,41.041
34.503,40.847
34.581,40.658
34.656,40.471
34.724,40.288
34.786,40.107
34.842,39.927
34.891,39.747
34.933,39.567
34.967,39.386
34.994,39.205
35.015,39.024
35.028,38.844
35.035,38.665
35.034,38.489
35.026,38.316
35.01,38.149
34.989,37.989
34.964,37.841
34.936,37.708
34.907,37.59
34.878,37.484
34.853,37.388
34.833,37.298
34.819,37.21
34.815,37.12
34.825,37.028
34.852,36.93
34.901,36.825
34.975,36.713
35.08,36.593
35.221,36.463
35.402,36.326
35.626,36.184
35.897,36.039
36.212,35.894
36.571,35.753
36.969,35.618
37.397,35.492
37.848,35.376
38.312,35.274
38.778,35.188
39.235,35.119
39.673,35.069
40.083,35.036
40.457,35.023
40.788,35.026
41.071,35.047
41.304,35.084
41.483,35.136
41.609,35.201
41.684,35.278
41.71,35.365
41.692,35.46
41.635,35.561
41.542,35.667
41.421,35.775
41.275,35.882
41.11,35.988
40.932,36.09
40.743,36.189
40.549,36.282
40.354,36.369
40.16,36.45
39.969,36.522
39.783,36.586
39.603,36.641
39.43,36.687
39.264,36.725
39.105,36.753
38.953,36.771
38.809,36.778
38.673,36.773
38.544,36.758
38.424,36.731
38.313,36.694
38.21,36.646
38.115,36.587
38.029,36.518
37.952,36.439
37.884,36.353
37.824,36.259
37.773,36.16
37.73,36.057
37.693,35.951
37.662,35.843
37.634,35.734
37.607,35.624
37.576,35.512
37.54,35.398
37.496,35.283
37.445,35.167
37.389,35.05
37.328,34.933
37.264,34.816
37.2,34.699
37.136,34.58
37.076,34.462
37.02,34.343
36.97,34.223
36.926,34.104
36.89,33.985
36.861,33.867
36.841,33.752
36.829,33.639
36.826,33.529
36.831,33.423
36.844,33.322
36.863,33.225
36.889,33.133
36.92,33.046
36.956,32.962
36.998,32.882
37.044,32.807
37.094,32.737
37.148,32.673
37.203,32.613
37.258,32.559
37.311,32.509
37.359,32.463
37.401,32.42
37.436,32.38
37.461,32.343
37.476,32.308
37.48,32.274
37.474,32.243
37.457,32.214
37.43,32.188
37.396,32.168
37.354,32.152
37.307,32.142
37.255,32.137
37.2,32.136
37.142,32.137
37.081,32.14
37.018,32.144
36.952,32.15
36.885,32.156
36.814,32.163
36.742,32.17
36.667,32.177
36.589,32.184
36.507,32.19
36.422,32.194
36.331,32.197
36.237,32.199
36.138,32.197
36.035,32.194
35.927,32.188
35.814,32.18
35.698,32.17
35.582,32.161
35.468,32.153
35.357,32.149
35.25,32.151
35.146,32.161
35.045,32.177
34.947,32.197
34.851,32.219
34.758,32.242
34.669,32.263
34.582,32.282
34.5,32.298
34.421,32.311
34.346,32.321
34.275,32.328
34.208,32.334
34.146,32.339
34.088,32.343
34.034,32.348
33.985,32.352
33.94,32.356
33.901,32.36
33.867,32.362
33.838,32.363
33.815,32.362
33.796,32.359
33.782,32.354
33.772,32.346
33.764,32.334
33.758,32.318
33.755,32.297
33.754,32.271
33.755,32.241
33.757,32.209
33.761,32.174
33.767,32.137
33.775,32.099
33.784,32.061
33.794,32.025
33.806,31.99
33.818,31.959
33.829,31.931
33.839,31.907
33.848,31.887
33.856,31.87
33.862,31.855
33.867,31.84
33.871,31.825
33.874,31.81
33.876,31.794
33.877,31.777
33.877,31.759
33.876,31.74
33.873,31.719
33.869,31.698
33.861,31.678
33.848,31.663
33.833,31.656
33.816,31.662
33.798,31.689
33.782,31.744
33.768,31.836
33.757,31.974
33.751,32.167
33.749,32.424
33.751,32.753
33.756,33.157
33.765,33.64
33.777,34.199
33.79,34.83
33.804,35.522
33.817,36.264
33.83,37.039
33.84,37.831
33.847,38.62
33.849,39.389
33.848,40.121
33.843,40.803
33.833,41.421
33.819,41.967
33.8,42.434
33.778,42.819
33.751,43.119
33.72,43.338
33.687,43.48
33.651,43.55
33.615,43.556
33.577,43.507
33.54,43.41
33.503,43.276
33.466,43.112
33.431,42.927
33.397,42.728
33.365,42.519
33.336,42.307
33.309,42.094
33.287,41.883
33.269,41.677
33.255,41.475
33.244,41.279
33.236,41.089
33.23,40.902
33.224,40.718
33.218,40.535
33.211,40.351
33.202,40.166
33.191,39.98
33.178,39.794
33.16,39.608
33.139,39.422
33.114,39.236
33.086,39.051
33.055,38.865
33.02,38.682
32.983,38.502
32.945,38.327
32.904,38.159
32.864,37.996
32.825,37.84
32.788,37.69
32.754,37.547
32.723,37.411
32.696,37.279
32.672,37.153
32.652,37.031
32.636,36.911
32.624,36.793
32.615,36.675
32.611,36.557
32.609,36.439
32.612,36.321
32.62,36.204
32.636,36.087
32.663,35.973
32.704,35.862
32.764,35.756
32.849,35.657
32.964,35.567
33.113,35.489
33.302,35.425
33.536,35.375
33.817,35.342
34.147,35.322
34.524,35.316
34.946,35.324
35.407,35.345
35.899,35.378
36.412,35.424
36.937,35.482
37.463,35.551
37.979,35.628
38.475,35.714
38.94,35.808
39.368,35.909
39.753,36.017
40.088,36.129
40.371,36.244
40.6,36.36
40.775,36.476
40.897,36.589
40.969,36.697
40.993,36.798
40.975,36.889
40.921,36.969
40.837,37.038
40.729,37.092
40.602,37.133
40.461,37.159
40.312,37.17
40.159,37.166
40.005,37.149
39.855,37.117
39.709,37.074
39.57,37.019
39.438,36.951
39.314,36.872
39.199,36.783
39.092,36.686
38.995,36.583
38.908,36.475
38.831,36.363
38.762,36.248
38.701,36.132
38.646,36.015
38.597,35.897
38.553,35.78
38.513,35.662
38.476,35.545
38.443,35.427
38.412,35.31
38.385,35.193
38.359,35.076
38.334,34.96
38.31,34.844
38.285,34.728
38.26,34.614
38.231,34.501
38.199,34.391
38.162,34.282
38.12,34.174
38.073,34.068
38.02,33.963
37.96,33.861
37.895,33.763
37.824,33.668
37.747,33.577
37.665,33.489
37.579,33.403
37.492,33.321
37.403,33.241
37.313,33.163
37.225,33.089
37.139,33.017
37.056,32.949
36.977,32.884
36.903,32.824
36.834,32.768
36.77,32.718
36.711,32.675
36.657,32.637
36.609,32.606
36.566,32.579
36.528,32.557
36.496,32.538
36.471,32.522
36.451,32.511
36.437,32.503
36.429,32.499
36.424,32.5
36.423,32.503
36.422,32.508
36.422,32.517
36.42,32.528
36.415,32.54
36.406,32.554
36.393,32.567
36.376,32.581
36.355,32.593
36.331,32.606
36.303,32.616
36.272,32.626
36.239,32.636
36.204,32.645
36.168,32.653
36.13,32.662
36.09,32.669
36.047,32.675
36.002,32.681
35.953,32.685
35.901,32.688
35.844,32.69
35.783,32.692
35.717,32.694
35.648,32.697
35.575,32.701
35.5,32.708
35.423,32.721
35.345,32.74
35.268,32.763
35.193,32.79
35.119,32.819
35.048,32.847
34.98,32.872
34.914,32.893
34.852,32.908
34.792,32.916
34.736,32.918
34.683,32.913
34.633,32.9
34.587,32.879
34.544,32.851
34.504,32.817
34.465,32.779
34.428,32.737
34.393,32.693
34.358,32.649
34.324,32.605
34.291,32.562
34.257,32.519
34.224,32.477
34.19,32.435
34.157,32.393
34.124,32.349
34.091,32.303
34.06,32.254
34.028,32.204
33.997,32.152
33.967,32.1
33.936,32.051
33.905,32.007
33.874,31.97
33.843,31.942
33.814,31.927
33.786,31.931
33.76,31.958
33.737,32.018
33.715,32.118
33.695,32.267
33.677,32.473
33.66,32.745
33.644,33.087
33.627,33.503
33.611,33.995
33.593,34.559
33.575,35.19
33.555,35.877
33.534,36.608
33.513,37.368
33.489,38.14
33.465,38.905
33.44,39.648
33.416,40.353
33.392,41.005
33.368,41.593
33.345,42.109
33.322,42.545
33.298,42.9
33.275,43.173
33.251,43.369
33.228,43.492
33.206,43.55
33.184,43.551
33.164,43.502
33.145,43.412
33.127,43.288
33.112,43.137
33.097,42.965
33.083,42.779
33.069,42.583
33.055,42.383
33.04,42.182
33.022,41.982
33.004,41.784
32.984,41.588
32.963,41.393
32.941,41.201
32.918,41.01
32.895,40.82
32.87,40.632
32.845,40.445
32.82,40.26
32.795,40.076
32.771,39.893
32.749,39.711
32.727,39.531
32.708,39.354
32.69,39.181
32.674,39.012
32.659,38.846
32.646,38.685
32.635,38.527
32.627,38.373
32.62,38.223
32.615,38.077
32.611,37.936
32.608,37.798
32.604,37.663
32.599,37.531
32.593,37.4
32.586,37.27
32.577,37.141
32.567,37.012
32.556,36.885
32.543,36.758
32.529,36.632
32.515,36.507
32.502,36.383
32.49,36.262
32.479,36.144
32.47,36.031
32.463,35.926
32.457,35.83
32.453,35.744
32.45,35.67
32.448,35.61
32.447,35.563
32.447,35.531
32.447,35.515
32.447,35.515
32.447,35.532
32.446,35.565
32.446,35.613
32.444,35.676
32.442,35.753
32.438,35.842
32.431,35.941
32.42,36.048
32.405,36.163
32.388,36.283
32.368,36.405
32.346,36.527
32.324,36.649
32.302,36.768
32.281,36.882
32.26,36.99
32.242,37.091
32.226,37.181
32.214,37.26
32.205,37.325
32.199,37.375
32.196,37.41
32.195,37.431
32.197,37.438
32.201,37.431
32.209,37.413
32.221,37.382
32.24,37.34
32.267,37.286
32.306,37.223
32.361,37.15
32.438,37.068
32.542,36.978
32.677,36.881
32.849,36.776
33.061,36.665
33.316,36.548
33.616,36.426
33.961,36.301
34.347,36.173
34.771,36.044
35.224,35.916
35.698,35.787
36.185,35.659
36.672,35.532
37.152,35.406
37.612,35.282
38.044,35.159
38.44,35.039
38.794,34.921
39.102,34.805
39.359,34.692
39.566,34.581
39.722,34.472
39.828,34.365
39.888,34.26
39.906,34.158
39.886,34.058
39.833,33.961
39.753,33.866
39.65,33.775
39.531,33.687
39.398,33.602
39.256,33.521
39.108,33.444
38.956,33.369
38.803,33.296
38.649,33.223
38.496,33.151
38.344,33.08
38.195,33.011
38.048,32.945
37.903,32.883
37.762,32.826
37.624,32.773
37.49,32.724
37.361,32.681
37.238,32.642
37.12,32.609
37.01,32.582
36.906,32.561
36.81,32.544
36.722,32.532
36.639,32.525
36.561,32.521
36.488,32.522
36.418,32.528
36.351,32.536
36.286,32.545
36.223,32.555
36.16,32.563
36.099,32.568
36.038,32.57
35.977,32.569
35.916,32.565
35.855,32.56
35.794,32.553
35.733,32.547
35.673,32.543
35.615,32.539
35.559,32.537
35.505,32.536
35.456,32.536
35.412,32.539
35.372,32.542
35.338,32.546
35.31,32.551
35.288,32.557
35.273,32.563
35.267,32.568
35.268,32.574
35.278,32.579
35.296,32.584
35.321,32.586
35.353,32.585
35.392,32.581
35.435,32.574
35.482,32.565
35.529,32.555
35.576,32.543
35.622,32.532
35.665,32.52
35.705,32.508
35.742,32.496
35.775,32.483
35.805,32.47
35.832,32.457
35.855,32.443
35.874,32.427
35.89,32.408
35.901,32.386
35.909,32.361
35.911,32.334
35.907,32.308
35.896,32.283
35.879,32.259
35.855,32.24
35.825,32.226
35.788,32.221
35.746,32.231
35.699,32.263
35.648,32.323
35.593,32.418
35.535,32.552
35.474,32.728
35.41,32.949
35.344,33.215
35.275,33.525
35.206,33.877
35.136,34.264
35.066,34.68
34.997,35.116
34.929,35.561
34.863,36.005
34.799,36.436
34.735,36.844
34.67,37.223
34.605,37.564
34.54,37.864
34.475,38.119
34.411,38.327
34.348,38.488
34.288,38.603
34.229,38.677
34.173,38.715
34.118,38.723
34.067,38.707
34.019,38.67
33.973,38.618
33.93,38.554
33.889,38.483
33.851,38.407
33.815,38.327
33.781,38.245
33.75,38.161
33.722,38.076
33.698,37.99
33.678,37.904
33.661,37.818
33.647,37.732
33.636,37.643
33.627,37.551
33.621,37.455
33.617,37.355
33.615,37.249
33.614,37.138
33.615,37.021
33.618,36.899
33.621,36.773
33.625,36.643
33.63,36.51
33.635,36.377
33.64,36.243
33.645,36.109
33.649,35.976
33.653,35.846
33.655,35.721
33.657,35.604
33.656,35.495
33.655,35.392
33.652,35.296
33.647,35.204
33.64,35.115
33.631,35.028
33.62,34.943
33.609,34.859
33.598,34.774
33.59,34.69
33.588,34.607
33.592,34.524
33.6,34.443
33.609,34.365
33.618,34.29
33.626,34.22
33.63,34.154
33.628,34.094
33.62,34.041
33.607,33.995
33.589,33.958
33.567,33.933
33.539,33.921
33.509,33.926
33.476,33.948
33.44,33.988
33.402,34.043
33.364,34.112
33.326,34.194
33.289,34.288
33.254,34.392
33.221,34.506
33.191,34.628
33.165,34.757
33.141,34.893
33.119,35.032
33.1,35.174
33.083,35.318
33.065,35.463
33.047,35.605
33.029,35.745
33.009,35.879
32.988,36.005
32.966,36.123
32.943,36.23
32.92,36.326
32.897,36.409
32.875,36.48
32.853,36.538
32.833,36.583
32.814,36.613
32.795,36.629
32.777,36.63
32.76,36.617
32.743,36.593
32.726,36.559
32.709,36.516
32.69,36.466
32.671,36.41
32.653,36.35
32.635,36.286
32.616,36.22
32.597,36.153
32.578,36.086
32.559,36.018
32.539,35.949
32.518,35.881
32.496,35.814
32.475,35.747
32.453,35.68
32.432,35.614
32.411,35.548
32.39,35.48
32.367,35.411
32.345,35.339
32.324,35.263
32.303,35.18
32.283,35.092
32.266,35
32.25,34.906
32.239,34.811
32.232,34.715
32.231,34.619
32.236,34.524
32.249,34.432
32.272,34.344
32.31,34.262
32.365,34.187
32.445,34.119
32.554,34.058
32.7,34.005
32.886,33.96
33.119,33.922
33.4,33.89
33.731,33.863
34.109,33.84
34.531,33.819
34.99,33.798
35.478,33.775
35.984,33.75
36.499,33.723
37.01,33.693
37.509,33.662
37.983,33.632
38.424,33.601
38.825,33.571
39.181,33.54
39.486,33.508
39.74,33.476
39.942,33.445
40.094,33.416
40.198,33.39
40.259,33.369
40.28,33.352
40.267,33.341
40.223,33.336
40.155,33.337
40.067,33.343
39.963,33.355
39.847,33.37
39.721,33.388
39.589,33.408
39.452,33.428
39.312,33.448
39.171,33.467
39.031,33.483
38.893,33.499
38.756,33.512
38.622,33.522
38.49,33.53
38.362,33.533
38.238,33.533
38.117,33.529
38,33.522
37.887,33.515
37.78,33.507
37.68,33.499
37.587,33.49
37.503,33.481
37.426,33.469
37.357,33.456
37.296,33.441
37.241,33.424
37.191,33.404
37.143,33.381
37.098,33.353
37.053,33.322
37.007,33.287
36.959,33.25
36.909,33.211
36.857,33.171
36.802,33.13
36.743,33.087
36.679,33.043
36.611,32.999
36.54,32.957
36.467,32.918
36.393,32.886
36.319,32.862
36.247,32.85
36.177,32.854
36.109,32.878
36.045,32.927
35.984,33.01
35.929,33.13
35.879,33.295
35.836,33.508
35.8,33.773
35.772,34.092
35.754,34.465
35.743,34.891
35.74,35.366
35.744,35.885
35.753,36.442
35.766,37.027
35.783,37.632
35.802,38.243
35.822,38.848
35.842,39.435
35.861,39.993
35.88,40.512
35.898,40.985
35.915,41.406
35.931,41.771
35.945,42.079
35.956,42.328
35.963,42.52
35.966,42.658
35.965,42.746
35.959,42.789
35.947,42.795
35.929,42.768
35.905,42.714
35.877,42.637
35.844,42.541
35.806,42.429
35.766,42.307
35.721,42.177
35.673,42.044
35.622,41.909
35.567,41.773
35.509,41.636
35.449,41.498
35.388,41.358
35.325,41.217
35.261,41.075
35.196,40.933
35.128,40.79
35.059,40.646
34.988,40.502
34.915,40.355
34.842,40.206
34.767,40.056
34.692,39.905
34.618,39.754
34.546,39.603
34.476,39.453
34.41,39.302
34.346,39.15
34.286,38.997
34.228,38.847
34.172,38.699
34.119,38.555
34.068,38.41
34.019,38.266
33.972,38.119
33.928,37.969
33.887,37.814
33.849,37.656
33.815,37.495
33.784,37.335
33.758,37.179
33.735,37.031
33.715,36.891
33.697,36.764
33.681,36.649
33.666,36.549
33.653,36.465
33.64,36.398
33.628,36.349
33.618,36.319
33.61,36.307
33.604,36.312
33.602,36.335
33.605,36.375
33.61,36.429
33.619,36.499
33.625,36.581
33.627,36.676
33.621,36.78
33.61,36.89
33.595,37.004
33.579,37.119
33.563,37.234
33.551,37.346
33.542,37.455
33.538,37.558
33.539,37.655
33.547,37.743
33.56,37.82
33.578,37.886
33.6,37.94
33.626,37.982
33.653,38.013
33.681,38.032
33.71,38.041
33.739,38.038
33.768,38.025
33.798,38.002
33.827,37.97
33.856,37.93
33.884,37.883
33.911,37.83
33.934,37.771
33.954,37.707
33.97,37.639
33.982,37.568
33.988,37.495
33.989,37.42
33.985,37.344
33.976,37.267
33.964,37.188
33.949,37.108
33.932,37.024
33.913,36.936
33.893,36.844
33.873,36.749
33.853,36.652
33.832,36.554
33.812,36.456
33.793,36.357
33.774,36.258
33.757,36.158
33.742,36.057
33.729,35.957
33.719,35.858
33.713,35.759
33.709,35.661
33.708,35.563
33.708,35.465
33.708,35.367
33.707,35.268
33.704,35.169
33.7,35.069
33.694,34.971
33.685,34.874
33.674,34.78
33.66,34.69
33.643,34.604
33.622,34.523
33.598,34.447
33.571,34.376
33.541,34.311
33.508,34.25
33.472,34.194
33.435,34.141
33.397,34.09
33.359,34.041
33.32,33.994
33.282,33.95
33.244,33.908
33.208,33.868
33.175,33.829
33.145,33.791
33.119,33.753
33.098,33.715
33.081,33.677
33.068,33.64
33.058,33.605
33.052,33.572
33.047,33.542
33.043,33.514
33.039,33.489
33.036,33.468
33.032,33.45
33.027,33.435
33.02,33.424
33.01,33.414
32.997,33.404
32.98,33.392
32.958,33.379
32.931,33.363
32.9,33.347
32.863,33.329
32.822,33.311
32.779,33.291
32.734,33.271
32.69,33.251
32.649,33.23
32.612,33.209
32.58,33.19
32.556,33.173
32.538,33.157
32.529,33.145
32.53,33.136
32.541,33.13
32.564,33.129
32.604,33.133
32.663,33.14
32.747,33.15
32.861,33.161
33.011,33.171
33.202,33.179
33.438,33.184
33.724,33.185
34.059,33.183
34.443,33.177
34.87,33.168
35.334,33.158
35.826,33.147
36.334,33.136
36.849,33.126
37.36,33.116
37.858,33.107
38.331,33.098
38.774,33.089
39.176,33.078
39.535,33.065
39.844,33.048
40.103,33.028
40.31,33.002
40.464,32.971
40.567,32.936
40.623,32.898
40.634,32.857
40.603,32.813
40.536,32.769
40.436,32.727
40.309,32.691
40.159,32.666
39.99,32.657
39.808,32.673
39.616,32.72
39.417,32.808
39.215,32.946
39.011,33.14
38.81,33.398
38.612,33.724
38.42,34.12
38.234,34.584
38.054,35.113
37.884,35.7
37.723,36.336
37.572,37.007
37.431,37.702
37.3,38.406
37.179,39.104
37.068,39.783
36.967,40.429
36.875,41.033
36.794,41.584
36.723,42.078
36.662,42.51
36.612,42.878
36.57,43.184
36.537,43.429
36.511,43.616
36.491,43.751
36.475,43.838
36.46,43.885
36.446,43.896
36.43,43.877
36.412,43.833
36.392,43.771
36.368,43.694
36.341,43.607
36.31,43.51
36.278,43.407
36.243,43.298
36.206,43.185
36.168,43.067
36.128,42.945
36.089,42.82
36.052,42.693
36.018,42.563
35.987,42.43
35.961,42.295
35.942,42.156
35.929,42.015
35.923,41.873
35.923,41.731
35.93,41.59
35.945,41.45
35.965,41.311
35.992,41.174
36.023,41.038
36.058,40.906
36.097,40.778
36.139,40.656
36.183,40.541
36.227,40.431
36.272,40.326
36.314,40.224
36.354,40.123
36.39,40.023
36.421,39.924
36.448,39.824
36.467,39.725
36.479,39.626
36.484,39.524
36.48,39.421
36.469,39.315
36.451,39.209
36.425,39.103
36.392,39
36.352,38.901
36.305,38.808
36.251,38.722
36.193,38.645
36.129,38.579
36.061,38.525
35.99,38.484
35.916,38.456
35.84,38.444
35.762,38.446
35.683,38.463
35.603,38.494
35.522,38.539
35.44,38.596
35.357,38.664
35.273,38.742
35.187,38.829
35.1,38.925
35.012,39.027
34.921,39.134
34.83,39.247
34.736,39.366
34.642,39.491
34.546,39.621
34.451,39.756
34.356,39.893
34.263,40.029
34.173,40.161
34.087,40.284
34.006,40.394
33.929,40.489
33.858,40.568
33.793,40.63
33.735,40.675
33.684,40.703
33.641,40.714
33.606,40.707
33.579,40.682
33.56,40.643
33.549,40.589
33.545,40.525
33.548,40.451
33.557,40.369
33.57,40.28
33.587,40.183
33.607,40.08
33.63,39.971
33.652,39.857
33.674,39.739
33.694,39.616
33.712,39.489
33.726,39.356
33.737,39.218
33.744,39.073
33.748,38.923
33.75,38.768
33.748,38.61
33.743,38.449
33.736,38.285
33.728,38.12
33.719,37.954
33.71,37.787
33.701,37.62
33.693,37.454
33.685,37.289
33.677,37.125
33.671,36.964
33.667,36.805
33.663,36.65
33.662,36.497
33.661,36.346
33.661,36.198
33.66,36.053
33.659,35.911
33.657,35.773
33.654,35.64
33.65,35.511
33.643,35.387
33.634,35.268
33.622,35.153
33.606,35.045
33.589,34.941
33.569,34.844
33.548,34.753
33.525,34.669
33.501,34.59
33.473,34.517
33.441,34.45
33.406,34.388
33.368,34.331
33.328,34.279
33.287,34.23
33.247,34.183
33.209,34.137
33.173,34.094
33.139,34.053
33.109,34.015
33.083,33.982
33.06,33.953
33.041,33.928
33.024,33.907
33.008,33.888
32.993,33.873
32.978,33.862
32.964,33.853
32.948,33.847
32.931,33.842
32.913,33.838
32.893,33.833
32.871,33.826
32.849,33.816
32.826,33.804
32.802,33.788
32.778,33.77
32.754,33.748
32.731,33.724
32.707,33.696
32.683,33.667
32.66,33.638
32.637,33.609
32.615,33.581
32.593,33.556
32.571,33.531
32.549,33.508
32.529,33.487
32.509,33.466
32.492,33.446
32.478,33.427
32.468,33.408
32.461,33.39
32.457,33.373
32.456,33.356
32.458,33.338
32.463,33.318
32.471,33.298
32.48,33.275
32.493,33.251
32.508,33.225
32.525,33.197
32.545,33.166
32.566,33.133
32.589,33.098
32.611,33.06
32.632,33.02
32.651,32.979
32.667,32.935
32.681,32.89
32.692,32.843
32.7,32.795
32.706,32.746
32.707,32.697
32.705,32.648
32.699,32.6
32.689,32.552
32.676,32.503
32.66,32.453
32.641,32.401
32.619,32.347
32.594,32.291
32.566,32.234
32.537,32.175
32.506,32.115
32.476,32.054
32.447,31.993
32.42,31.932
32.397,31.874
32.38,31.819
32.37,31.768
32.372,31.723
32.389,31.686
32.426,31.659
32.489,31.649
32.584,31.663
32.719,31.709
32.901,31.795
33.136,31.932
33.427,32.126
33.778,32.386
34.186,32.716
34.648,33.118
35.155,33.594
35.7,34.14
36.269,34.752
36.85,35.421
37.429,36.135
37.993,36.879
38.53,37.638
39.029,38.394
39.481,39.133
39.88,39.838
40.22,40.498
40.499,41.102
40.717,41.641
40.874,42.11
40.974,42.505
41.02,42.825
41.019,43.073
40.976,43.252
40.899,43.369
40.792,43.43
40.661,43.441
40.513,43.412
40.352,43.349
40.182,43.259
40.007,43.149
39.829,43.023
39.651,42.888
39.475,42.745
39.302,42.597
39.133,42.446
38.967,42.293
38.805,42.14
38.646,41.987
38.488,41.833
38.331,41.679
38.175,41.524
38.022,41.368
37.874,41.209
37.731,41.049
37.595,40.887
37.466,40.723
37.346,40.558
37.235,40.394
37.134,40.23
37.041,40.068
36.956,39.91
36.879,39.756
36.809,39.606
36.744,39.46
36.685,39.317
36.63,39.179
36.578,39.043
36.528,38.911
36.478,38.782
36.428,38.655
36.377,38.531
36.323,38.408
36.267,38.285
36.207,38.163
36.143,38.04
36.077,37.917
36.007,37.794
35.934,37.671
35.859,37.548
35.782,37.425
35.704,37.302
35.626,37.182
35.549,37.066
35.477,36.957
35.41,36.855
35.349,36.763
35.295,36.683
35.248,36.616
35.208,36.563
35.176,36.526
35.15,36.505
35.13,36.502
35.116,36.515
35.108,36.544
35.104,36.588
35.104,36.646
35.107,36.714
35.114,36.793
35.122,36.88
35.132,36.975
35.142,37.075
35.154,37.18
35.165,37.288
35.177,37.396
35.187,37.501
35.195,37.601
35.2,37.694
35.201,37.779
35.197,37.854
35.189,37.92
35.176,37.973
35.158,38.012
35.136,38.035
35.109,38.043
35.079,38.034
35.045,38.01
35.009,37.972
34.97,37.92
34.93,37.856
34.889,37.781
34.847,37.698
34.804,37.606
34.759,37.508
34.713,37.403
34.664,37.294
34.612,37.181
34.556,37.066
34.496,36.949
34.431,36.831
34.362,36.711
34.291,36.591
34.217,36.469
34.143,36.346
34.068,36.221
33.994,36.095
33.92,35.968
33.847,35.838
33.775,35.706
33.705,35.574
33.637,35.441
33.573,35.31
33.512,35.182
33.454,35.056
33.398,34.932
33.346,34.811
33.298,34.692
33.253,34.577
33.212,34.465
33.175,34.356
33.142,34.25
33.112,34.148
33.086,34.051
33.064,33.957
33.045,33.868
33.03,33.783
33.017,33.701
33.006,33.623
32.997,33.548
32.99,33.476
32.985,33.406
32.982,33.337
32.981,33.27
32.98,33.205
32.98,33.144
32.979,33.085
32.977,33.029
32.973,32.977
32.968,32.93
32.963,32.888
32.956,32.85
32.949,32.817
32.943,32.788
32.937,32.762
32.933,32.739
32.93,32.719
32.929,32.7
32.93,32.683
32.932,32.667
32.935,32.651
32.938,32.638
32.942,32.628
32.947,32.619
32.952,32.611
32.958,32.602
32.964,32.593
32.969,32.584
32.973,32.573
32.976,32.562
32.977,32.55
32.976,32.537
32.972,32.523
32.965,32.507
32.957,32.49
32.948,32.472
32.936,32.453
32.924,32.432
32.909,32.41
32.893,32.389
32.874,32.367
32.853,32.344
32.829,32.321
32.802,32.298
32.774,32.277
32.743,32.258
32.712,32.242
32.681,32.228
32.649,32.215
32.618,32.203
32.587,32.193
32.555,32.184
32.525,32.174
32.494,32.164
32.465,32.153
32.436,32.14
32.409,32.126
32.382,32.112
32.356,32.095
32.33,32.078
32.306,32.06
32.282,32.041
32.259,32.02
32.238,31.996
32.217,31.968
32.196,31.935
32.176,31.899
32.155,31.859
32.135,31.816
32.116,31.772
32.098,31.726
32.081,31.679
32.066,31.632
32.052,31.586
32.036,31.54
32.019,31.495
32.001,31.453
31.982,31.415
31.961,31.384
31.941,31.362
31.919,31.354
31.898,31.366
31.877,31.406
31.856,31.484
31.837,31.606
31.819,31.782
31.804,32.015
31.79,32.311
31.778,32.673
31.768,33.104
31.759,33.601
31.751,34.162
31.744,34.78
31.737,35.443
31.73,36.141
31.723,36.857
31.716,37.579
31.708,38.29
31.699,38.976
31.689,39.626
31.679,40.226
31.669,40.769
31.66,41.247
31.65,41.656
31.64,41.995
31.63,42.265
31.62,42.468
31.608,42.61
31.595,42.695
31.582,42.731
31.567,42.726
31.551,42.686
31.534,42.618
31.516,42.527
31.499,42.419
31.483,42.299
31.468,42.17
31.456,42.035
31.448,41.897
31.444,41.757
31.444,41.615
31.452,41.473
31.468,41.331
31.495,41.188
31.536,41.043
31.595,40.897
31.675,40.749
31.782,40.598
31.921,40.443
32.096,40.287
32.316,40.127
32.587,39.966
32.913,39.804
33.29,39.64
33.714,39.477
34.177,39.314
34.667,39.152
35.175,38.992
35.687,38.834
36.192,38.679
36.68,38.529
37.14,38.384
37.564,38.245
37.947,38.11
38.281,37.98
38.565,37.853
38.797,37.728
38.978,37.606
39.108,37.485
39.192,37.366
39.233,37.248
39.236,37.132
39.205,37.016
39.146,36.901
39.065,36.788
38.966,36.678
38.855,36.572
38.735,36.473
38.609,36.381
38.479,36.299
38.348,36.226
38.216,36.164
38.086,36.114
37.957,36.076
37.83,36.052
37.705,36.041
37.581,36.044
37.458,36.06
37.337,36.088
37.218,36.126
37.1,36.174
36.986,36.23
36.874,36.294
36.767,36.363
36.665,36.438
36.566,36.515
36.472,36.594
36.384,36.672
36.301,36.75
36.224,36.825
36.152,36.896
36.085,36.963
36.022,37.025
35.962,37.079
35.904,37.126
35.849,37.163
35.795,37.191
35.743,37.209
35.69,37.216
35.638,37.213
35.585,37.198
35.532,37.171
35.478,37.132
35.424,37.083
35.371,37.024
35.32,36.956
35.272,36.878
35.226,36.794
35.183,36.702
35.144,36.603
35.109,36.499
35.081,36.389
35.06,36.274
35.047,36.156
35.043,36.036
35.048,35.914
35.063,35.792
35.086,35.669
35.119,35.546
35.16,35.422
35.207,35.297
35.259,35.172
35.316,35.047
35.376,34.924
35.439,34.803
35.503,34.685
35.567,34.57
35.631,34.456
35.693,34.344
35.752,34.234
35.808,34.126
35.86,34.02
35.907,33.917
35.947,33.816
35.979,33.718
36.002,33.62
36.016,33.524
36.021,33.429
36.017,33.336
36.003,33.246
35.98,33.158
35.949,33.073
35.91,32.99
35.865,32.91
35.815,32.834
35.761,32.764
35.704,32.699
35.644,32.641
35.583,32.589
35.52,32.544
35.456,32.506
35.391,32.474
35.324,32.447
35.256,32.426
35.186,32.409
35.115,32.395
35.041,32.384
34.966,32.373
34.888,32.361
34.81,32.348
34.729,32.333
34.647,32.317
34.565,32.3
34.481,32.282
34.398,32.263
34.315,32.244
34.233,32.224
34.151,32.206
34.072,32.19
33.994,32.175
33.92,32.163
33.85,32.153
33.784,32.144
33.723,32.134
33.667,32.122
33.616,32.108
33.57,32.092
33.529,32.075
33.494,32.057
33.464,32.039
33.437,32.023
33.413,32.009
33.391,31.996
33.373,31.985
33.358,31.975
33.345,31.966
33.334,31.957
33.327,31.949
33.322,31.94
33.319,31.931
33.317,31.921
33.316,31.911
33.317,31.9
33.317,31.889
33.318,31.879
33.318,31.868
33.317,31.858
33.316,31.847
33.316,31.835
33.316,31.821
33.316,31.805
33.318,31.786
33.32,31.765
33.323,31.74
33.327,31.714
33.33,31.685
33.334,31.655
33.338,31.623
33.342,31.592
33.346,31.562
33.35,31.534
33.354,31.509
33.359,31.485
33.365,31.464
33.37,31.443
33.376,31.422
33.382,31.403
33.387,31.385
33.391,31.367
33.395,31.349
33.398,31.331
33.401,31.313
33.403,31.295
33.405,31.275
33.405,31.255
33.404,31.235
33.401,31.213
33.396,31.19
33.389,31.164
33.378,31.135
33.365,31.105
33.35,31.072
33.333,31.039
33.314,31.004
33.296,30.97
33.278,30.936
33.261,30.903
33.246,30.871
33.232,30.84
33.22,30.81
33.208,30.782
33.197,30.757
33.185,30.735
33.172,30.719
33.159,30.714
33.144,30.725
33.129,30.761
33.113,30.831
33.096,30.943
33.079,31.108
33.062,31.334
33.045,31.628
33.028,31.995
33.012,32.439
32.997,32.959
32.981,33.553
32.965,34.214
32.949,34.929
32.932,35.686
32.915,36.469
32.897,37.262
32.879,38.048
32.861,38.811
32.844,39.537
32.827,40.212
32.81,40.826
32.793,41.371
32.776,41.842
32.758,42.236
32.741,42.555
32.722,42.801
32.704,42.978
32.686,43.092
32.667,43.15
32.648,43.158
32.63,43.125
32.611,43.059
32.593,42.966
32.576,42.853
32.559,42.726
32.542,42.591
32.525,42.449
32.509,42.304
32.492,42.157
32.476,42.01
32.46,41.862
32.444,41.715
32.429,41.567
32.415,41.418
32.403,41.269
32.391,41.117
32.382,40.965
32.376,40.81
32.376,40.657
32.383,40.51
32.402,40.374
32.435,40.248
32.489,40.13
32.569,40.016
32.683,39.903
32.838,39.787
33.04,39.664
33.294,39.536
33.604,39.401
33.969,39.262
34.388,39.118
34.854,38.972
35.36,38.821
35.895,38.667
36.449,38.51
37.008,38.349
37.561,38.188
38.095,38.027
38.599,37.868
39.063,37.712
39.479,37.56
39.842,37.413
40.149,37.271
40.398,37.135
40.59,37.007
40.727,36.887
40.812,36.776
40.849,36.672
40.844,36.577
40.802,36.492
40.73,36.419
40.633,36.356
40.517,36.306
40.388,36.268
40.248,36.242
40.101,36.229
39.949,36.228
39.794,36.24
39.638,36.264
39.482,36.3
39.327,36.346
39.173,36.402
39.021,36.468
38.871,36.543
38.723,36.624
38.576,36.708
38.431,36.792
38.287,36.874
38.144,36.953
38.003,37.028
37.866,37.099
37.733,37.165
37.607,37.225
37.487,37.28
37.376,37.327
37.272,37.366
37.177,37.397
37.091,37.418
37.012,37.429
36.941,37.429
36.875,37.417
36.814,37.394
36.758,37.36
36.706,37.317
36.657,37.266
36.608,37.207
36.56,37.14
36.51,37.067
36.458,36.989
36.403,36.905
36.347,36.816
36.291,36.722
36.234,36.624
36.177,36.523
36.122,36.421
36.069,36.317
36.02,36.211
35.975,36.102
35.934,35.988
35.899,35.87
35.87,35.749
35.847,35.626
35.833,35.503
35.826,35.382
35.83,35.262
35.844,35.145
35.867,35.031
35.898,34.918
35.937,34.808
35.981,34.699
36.031,34.591
36.084,34.485
36.14,34.38
36.198,34.277
36.255,34.175
36.31,34.074
36.362,33.976
36.41,33.879
36.454,33.785
36.491,33.693
36.523,33.603
36.549,33.514
36.568,33.424
36.581,33.336
36.587,33.25
36.587,33.167
36.581,33.088
36.568,33.012
36.549,32.941
36.524,32.875
36.495,32.814
36.461,32.757
36.422,32.703
36.378,32.653
36.33,32.607
36.277,32.564
36.22,32.525
36.158,32.488
36.093,32.455
36.024,32.425
35.951,32.399
35.874,32.378
35.793,32.361
35.709,32.348
35.621,32.338
35.532,32.33
35.44,32.324
35.348,32.32
35.255,32.316
35.162,32.311
35.07,32.306
34.978,32.3
34.887,32.293
34.797,32.286
34.709,32.279
34.622,32.272
34.536,32.264
34.453,32.256
34.372,32.247
34.293,32.237
34.216,32.226
34.143,32.215
34.073,32.205
34.006,32.197
33.944,32.191
33.885,32.188
33.831,32.188
33.779,32.189
33.731,32.192
33.685,32.194
33.643,32.196
33.603,32.196
33.568,32.195
33.535,32.191
33.507,32.185
33.481,32.177
33.459,32.166
33.44,32.154
33.425,32.141
33.413,32.128
33.403,32.114
33.397,32.101
33.393,32.088
33.391,32.075
33.391,32.061
33.393,32.046
33.396,32.029
33.401,32.01
33.407,31.989
33.414,31.965
33.422,31.939
33.431,31.911
33.441,31.879
33.451,31.844
33.462,31.806
33.474,31.766
33.485,31.725
33.496,31.684
33.506,31.644
33.515,31.604
33.522,31.566
33.527,31.531
33.531,31.5
33.532,31.471
33.533,31.446
33.534,31.423
33.535,31.402
33.538,31.38
33.542,31.358
33.546,31.334
33.551,31.308
33.555,31.279
33.557,31.247
33.556,31.212
33.553,31.174
33.547,31.134
33.538,31.094
33.526,31.053
33.512,31.013
33.494,30.974
33.474,30.938
33.452,30.905
33.427,30.873
33.4,30.843
33.372,30.815
33.344,30.789
33.316,30.764
33.288,30.742
33.261,30.722
33.236,30.704
33.213,30.69
33.193,30.68
33.175,30.676
33.159,30.682
33.145,30.702
33.134,30.739
33.124,30.8
33.115,30.892
33.106,31.024
33.098,31.204
33.089,31.441
33.081,31.742
33.073,32.111
33.067,32.552
33.062,33.061
33.058,33.636
33.057,34.27
33.057,34.953
33.059,35.672
33.063,36.414
33.068,37.164
33.075,37.907
33.083,38.628
33.094,39.312
33.105,39.949
33.117,40.529
33.13,41.044
33.141,41.492
33.152,41.871
33.162,42.18
33.169,42.423
33.174,42.604
33.176,42.727
33.174,42.799
33.169,42.826
33.159,42.815
33.146,42.772
33.128,42.703
33.108,42.613
33.085,42.508
33.059,42.391
33.031,42.266
33.001,42.134
32.968,41.997
32.934,41.857
32.899,41.714
32.864,41.569
32.83,41.423
32.798,41.275
32.769,41.126
32.744,40.978
32.725,40.831
32.71,40.685
32.701,40.54
32.698,40.394
32.704,40.247
32.72,40.098
32.749,39.948
32.794,39.795
32.862,39.641
32.957,39.484
33.088,39.326
33.26,39.167
33.477,39.008
33.745,38.851
34.065,38.694
34.438,38.538
34.86,38.383
35.325,38.23
35.827,38.078
36.356,37.928
36.901,37.781
37.45,37.635
37.991,37.488
38.514,37.34
39.008,37.189
39.464,37.037
39.875,36.888
40.235,36.743
40.542,36.606
40.793,36.477
40.99,36.357
41.134,36.249
41.226,36.153
41.272,36.071
41.274,36.003
41.239,35.95
41.17,35.911
41.073,35.887
40.953,35.876
40.814,35.878
40.661,35.892
40.498,35.919
40.328,35.957
40.154,36.005
39.977,36.064
39.801,36.13
39.628,36.203
39.459,36.282
39.297,36.366
39.14,36.455
38.988,36.547
38.837,36.64
38.687,36.733
38.538,36.823
38.392,36.908
38.251,36.987
38.116,37.058
37.99,37.118
37.873,37.167
37.767,37.205
37.673,37.232
37.591,37.247
37.519,37.251
37.459,37.244
37.408,37.227
37.366,37.199
37.33,37.161
37.301,37.114
37.277,37.057
37.256,36.992
37.237,36.918
37.22,36.836
37.202,36.747
37.182,36.65
37.157,36.548
37.127,36.441
37.092,36.329
37.051,36.214
37.005,36.096
36.954,35.975
36.901,35.853
36.845,35.73
36.789,35.607
36.733,35.485
36.681,35.362
36.632,35.24
36.589,35.117
36.552,34.995
36.525,34.874
36.507,34.755
36.5,34.639
36.503,34.526
36.516,34.416
36.538,34.308
36.568,34.203
36.604,34.1
36.644,34
36.687,33.902
36.731,33.805
36.777,33.712
36.823,33.62
36.869,33.532
36.913,33.447
36.955,33.365
36.995,33.286
37.03,33.212
37.061,33.142
37.087,33.075
37.106,33.012
37.119,32.95
37.125,32.891
37.123,32.833
37.114,32.777
37.098,32.725
37.077,32.677
37.051,32.633
37.02,32.594
36.984,32.56
36.943,32.529
36.898,32.501
36.848,32.476
36.794,32.453
36.736,32.431
36.674,32.41
36.607,32.39
36.537,32.37
36.462,32.35
36.383,32.332
36.302,32.315
36.218,32.3
36.133,32.287
36.047,32.276
35.961,32.266
35.877,32.256
35.794,32.248
35.713,32.24
35.635,32.234
35.56,32.23
35.489,32.227
35.42,32.226
35.355,32.227
35.293,32.229
35.234,32.232
35.177,32.235
35.123,32.237
35.071,32.239
35.021,32.239
34.973,32.238
34.925,32.234
34.88,32.228
34.836,32.222
34.795,32.214
34.756,32.206
34.72,32.198
34.688,32.188
34.659,32.176
34.633,32.162
34.609,32.147
34.588,32.13
34.569,32.113
34.551,32.094
34.535,32.073
34.519,32.051
34.504,32.027
34.489,32.001
34.475,31.973
34.463,31.944
34.452,31.914
34.442,31.883
34.433,31.85
34.425,31.816
34.416,31.781
34.408,31.747
34.4,31.714
34.391,31.684
34.381,31.657
34.372,31.634
34.362,31.613
34.353,31.596
34.343,31.581
34.333,31.568
34.323,31.556
34.313,31.543
34.303,31.53
34.291,31.516
34.276,31.501
34.259,31.483
34.239,31.464
34.217,31.444
34.193,31.424
34.168,31.405
34.141,31.387
34.115,31.369
34.089,31.352
34.063,31.334
34.037,31.315
34.01,31.297
33.982,31.277
33.953,31.257
33.921,31.237
33.889,31.217
33.856,31.196
33.822,31.174
33.786,31.151
33.749,31.126
33.711,31.1
33.672,31.074
33.631,31.048
33.59,31.021
33.548,30.993
33.505,30.964
33.461,30.937
33.415,30.91
33.369,30.886
33.322,30.864
33.275,30.845
33.229,30.828
33.184,30.813
33.14,30.8
33.097,30.79
33.055,30.781
33.014,30.774
32.974,30.772
32.937,30.776
32.901,30.79
32.867,30.818
32.835,30.869
32.804,30.949
32.775,31.071
32.748,31.243
32.723,31.474
32.699,31.775
32.677,32.151
32.656,32.606
32.636,33.142
32.616,33.755
32.597,34.438
32.579,35.182
32.56,35.971
32.543,36.789
32.525,37.62
32.507,38.445
32.488,39.249
32.468,40.015
32.449,40.729
32.429,41.379
32.408,41.957
32.385,42.457
32.36,42.876
32.331,43.215
32.299,43.477
32.264,43.667
32.226,43.792
32.184,43.857
32.141,43.872
32.096,43.843
32.051,43.778
32.008,43.686
31.966,43.573
31.929,43.444
31.896,43.305
31.867,43.161
31.842,43.012
31.822,42.863
31.807,42.714
31.798,42.567
31.795,42.42
31.8,42.275
31.815,42.129
31.84,41.982
31.88,41.832
31.938,41.68
32.018,41.523
32.125,41.363
32.267,41.2
32.448,41.032
32.675,40.862
32.952,40.689
33.282,40.516
33.665,40.344
34.098,40.176
34.577,40.011
35.093,39.852
35.635,39.697
36.193,39.547
36.754,39.401
37.306,39.261
37.838,39.126
38.341,38.997
38.806,38.874
39.226,38.754
39.596,38.637
39.913,38.522
40.176,38.409
40.382,38.297
40.535,38.186
40.637,38.074
40.692,37.962
40.704,37.85
40.679,37.737
40.62,37.625
40.535,37.514
40.428,37.406
40.305,37.301
40.169,37.201
40.025,37.106
39.875,37.019
39.723,36.94
39.569,36.872
39.417,36.814
39.267,36.767
39.121,36.733
38.978,36.711
38.84,36.701
38.707,36.703
38.579,36.717
38.456,36.743
38.337,36.779
38.221,36.827
38.109,36.884
38,36.95
37.894,37.023
37.791,37.1
37.692,37.177
37.598,37.253
37.51,37.326
37.428,37.396
37.352,37.462
37.281,37.523
37.215,37.58
37.153,37.629
37.096,37.669
37.041,37.7
36.989,37.72
36.939,37.731
36.89,37.732
36.841,37.724
36.792,37.705
36.743,37.675
36.691,37.635
36.638,37.583
36.583,37.521
36.525,37.449
36.466,37.367
36.405,37.276
36.346,37.178
36.287,37.071
36.232,36.959
36.181,36.84
36.136,36.717
36.099,36.591
36.069,36.463
36.048,36.335
36.034,36.207
36.029,36.08
36.032,35.955
36.043,35.831
36.061,35.709
36.087,35.589
36.118,35.473
36.155,35.358
36.196,35.245
36.241,35.133
36.288,35.022
36.338,34.913
36.388,34.805
36.439,34.698
36.488,34.592
36.537,34.487
36.585,34.383
36.629,34.278
36.67,34.174
36.705,34.069
36.736,33.965
36.761,33.862
36.78,33.762
36.793,33.666
36.802,33.573
36.806,33.485
36.807,33.401
36.804,33.321
36.799,33.245
36.791,33.175
36.779,33.11
36.764,33.05
36.746,32.994
36.723,32.942
36.695,32.895
36.664,32.85
36.628,32.809
36.588,32.771
36.543,32.734
36.494,32.7
36.442,32.668
36.387,32.636
36.328,32.605
36.268,32.576
36.207,32.549
36.145,32.525
36.083,32.505
36.022,32.49
35.963,32.478
35.905,32.471
35.849,32.467
35.795,32.466
35.742,32.468
35.69,32.47
35.639,32.473
35.59,32.476
35.541,32.478
35.493,32.479
35.445,32.478
35.398,32.475
35.351,32.469
35.305,32.459
35.259,32.447
35.214,32.43
35.169,32.41
35.124,32.387
35.078,32.362
35.031,32.335
34.984,32.309
34.935,32.284
34.885,32.259
34.835,32.236
34.785,32.213
34.736,32.191
34.688,32.169
34.642,32.147
34.598,32.126
34.556,32.105
34.514,32.085
34.475,32.065
34.436,32.048
34.398,32.033
34.355,32.02
34.308,32.01
34.257,32.002
34.203,31.995
34.15,31.988
34.1,31.98
34.054,31.97
34.012,31.957
33.976,31.94
33.945,31.92
33.919,31.898
33.898,31.873
33.88,31.846
33.864,31.817
33.851,31.785
33.839,31.751
33.825,31.716
33.81,31.678
33.791,31.64
33.768,31.602
33.741,31.564
33.71,31.526
33.675,31.489
33.637,31.454
33.596,31.42
33.554,31.387
33.511,31.357
33.469,31.329
33.428,31.303
33.389,31.277
33.354,31.252
33.323,31.227
33.297,31.201
33.275,31.175
33.259,31.15
33.249,31.125
33.245,31.099
33.248,31.074
33.257,31.05
33.272,31.026
33.294,31.004
33.322,30.982
33.357,30.961
33.396,30.941
33.439,30.922
33.487,30.904
33.539,30.888
33.594,30.875
33.652,30.865
33.711,30.858
33.772,30.853
33.832,30.849
33.892,30.844
33.95,30.838
34.004,30.83
34.052,30.821
34.093,30.81
34.124,30.798
34.143,30.785
34.151,30.77
34.147,30.755
34.132,30.739
34.107,30.724
34.076,30.71
34.041,30.697
34.002,30.686
33.96,30.675
33.915,30.664
33.867,30.651
33.815,30.638
33.762,30.623
33.707,30.609
33.654,30.594
33.605,30.58
33.566,30.568
33.541,30.556
33.536,30.547
33.56,30.542
33.617,30.541
33.716,30.547
33.864,30.562
34.064,30.591
34.32,30.637
34.631,30.706
34.996,30.807
35.409,30.949
35.863,31.14
36.35,31.392
36.858,31.71
37.375,32.1
37.89,32.566
38.391,33.106
38.868,33.716
39.311,34.391
39.713,35.121
40.069,35.893
40.377,36.692
40.634,37.503
40.84,38.307
40.998,39.089
41.108,39.833
41.176,40.526
41.206,41.159
41.202,41.724
41.17,42.217
41.114,42.635
41.039,42.977
40.949,43.245
40.848,43.442
40.739,43.575
40.623,43.651
40.502,43.676
40.378,43.66
40.25,43.608
40.12,43.528
39.987,43.425
39.851,43.306
39.713,43.174
39.571,43.033
39.426,42.888
39.277,42.741
39.126,42.593
38.972,42.444
38.817,42.293
38.66,42.141
38.505,41.98
38.352,41.808
38.202,41.624
38.056,41.429
37.915,41.226
37.779,41.019
37.651,40.811
37.53,40.604
37.417,40.403
37.314,40.208
37.22,40.023
37.136,39.849
37.059,39.686
36.989,39.535
36.924,39.394
36.863,39.262
36.805,39.137
36.75,39.017
36.699,38.902
36.65,38.788
36.604,38.676
36.562,38.563
36.522,38.449
36.486,38.333
36.453,38.214
36.425,38.093
36.402,37.97
36.385,37.848
36.376,37.728
36.375,37.61
36.383,37.494
36.401,37.378
36.429,37.265
36.464,37.152
36.506,37.043
36.556,36.938
36.611,36.839
36.671,36.748
36.734,36.667
36.798,36.597
36.864,36.542
36.928,36.501
36.989,36.477
37.046,36.469
37.099,36.478
37.147,36.502
37.19,36.541
37.227,36.594
37.259,36.659
37.286,36.734
37.308,36.819
37.326,36.91
37.339,37.007
37.348,37.108
37.351,37.211
37.35,37.315
37.343,37.416
37.332,37.512
37.316,37.601
37.297,37.683
37.273,37.757
37.246,37.823
37.215,37.878
37.179,37.922
37.138,37.953
37.093,37.97
37.043,37.975
36.989,37.966
36.93,37.945
36.866,37.912
36.797,37.869
36.724,37.816
36.646,37.754
36.564,37.686
36.477,37.611
36.385,37.53
36.288,37.444
36.185,37.353
36.077,37.256
35.965,37.154
35.849,37.049
35.733,36.939
35.616,36.827
35.5,36.712
35.386,36.596
35.276,36.477
35.17,36.356
35.071,36.233
34.978,36.107
34.893,35.979
34.817,35.848
34.748,35.717
34.686,35.587
34.631,35.459
34.583,35.332
34.541,35.207
34.505,35.084
34.475,34.963
34.452,34.844
34.433,34.728
34.42,34.614
34.411,34.503
34.406,34.395
34.404,34.289
34.405,34.187
34.408,34.089
34.413,33.995
34.42,33.905
34.428,33.819
34.435,33.735
34.443,33.655
34.449,33.576
34.453,33.498
34.457,33.421
34.459,33.346
34.462,33.274
34.464,33.205
34.467,33.139
34.471,33.076
34.474,33.016
34.477,32.96
34.48,32.906
34.482,32.856
34.482,32.807
34.48,32.761
34.477,32.717
34.471,32.675
34.464,32.637
34.455,32.603
34.444,32.573
34.432,32.546
34.419,32.524
34.405,32.506
34.389,32.492
34.372,32.479
34.352,32.467
34.33,32.455
34.305,32.444
34.278,32.435
34.249,32.429
34.219,32.424
34.187,32.419
34.156,32.416
34.124,32.413
34.093,32.412
34.063,32.411
34.032,32.412
34.003,32.413
33.974,32.415
33.946,32.418
33.919,32.421
33.892,32.425
33.867,32.43
33.843,32.434
33.819,32.439
33.796,32.444
33.773,32.449
33.75,32.452
33.726,32.451
33.7,32.446
33.673,32.436
33.645,32.423
33.617,32.407
33.589,32.389
33.561,32.37
33.534,32.35
33.507,32.331
33.481,32.312
33.455,32.293
33.429,32.275
33.403,32.256
33.376,32.237
33.346,32.217
33.314,32.193
33.279,32.167
33.241,32.139
33.2,32.11
33.155,32.082
33.107,32.056
33.057,32.032
33.004,32.009
32.948,31.988
32.891,31.969
32.834,31.951
32.779,31.935
32.725,31.92
32.672,31.905
32.622,31.89
32.574,31.874
32.529,31.856
32.486,31.837
32.447,31.816
32.413,31.794
32.384,31.771
32.362,31.748
32.346,31.723
32.338,31.697
32.34,31.669
32.352,31.64
32.379,31.61
32.424,31.581
32.492,31.553
32.589,31.526
32.721,31.5
32.896,31.473
33.122,31.446
33.404,31.419
33.744,31.391
34.143,31.362
34.598,31.333
35.102,31.303
35.647,31.271
36.223,31.238
36.817,31.203
37.416,31.168
38.007,31.136
38.58,31.106
39.122,31.079
39.624,31.056
40.079,31.035
40.481,31.017
40.828,31.002
41.117,30.99
41.35,30.983
41.528,30.982
41.651,30.991
41.726,31.013
41.755,31.053
41.746,31.118
41.704,31.217
41.633,31.359
41.541,31.556
41.433,31.816
41.314,32.148
41.186,32.556
41.053,33.043
40.917,33.608
40.782,34.246
40.648,34.951
40.515,35.71
40.385,36.511
40.255,37.335
40.126,38.167
39.996,38.988
39.865,39.781
39.731,40.533
39.597,41.229
39.461,41.859
39.326,42.416
39.193,42.895
39.062,43.293
38.936,43.611
38.816,43.853
38.702,44.022
38.596,44.125
38.498,44.17
38.407,44.165
38.324,44.119
38.249,44.039
38.181,43.934
38.12,43.809
38.064,43.672
38.012,43.527
37.963,43.379
37.914,43.229
37.864,43.079
37.813,42.933
37.76,42.789
37.706,42.646
37.65,42.504
37.591,42.361
37.53,42.215
37.466,42.067
37.401,41.917
37.335,41.763
37.269,41.605
37.205,41.444
37.144,41.279
37.087,41.111
37.034,40.941
36.987,40.771
36.945,40.601
36.908,40.434
36.875,40.271
36.846,40.112
36.821,39.958
36.8,39.809
36.782,39.665
36.767,39.525
36.755,39.391
36.745,39.265
36.737,39.144
36.73,39.028
36.721,38.916
36.711,38.806
36.699,38.697
36.683,38.59
36.664,38.484
36.642,38.379
36.617,38.274
36.589,38.169
36.557,38.062
36.52,37.956
36.478,37.849
36.43,37.742
36.377,37.637
36.318,37.535
36.253,37.438
36.181,37.348
36.104,37.264
36.02,37.19
35.93,37.126
35.834,37.074
35.732,37.035
35.625,37.011
35.514,37.002
35.4,37.007
35.283,37.026
35.165,37.058
35.046,37.102
34.928,37.156
34.812,37.219
34.699,37.288
34.588,37.362
34.481,37.439
34.377,37.518
34.276,37.596
34.178,37.672
34.082,37.746
33.99,37.815
33.901,37.879
33.817,37.936
33.738,37.985
33.667,38.027
33.603,38.059
33.546,38.082
33.494,38.096
33.447,38.099
33.405,38.093
33.367,38.075
33.332,38.047
33.301,38.008
33.271,37.958
33.244,37.899
33.219,37.831
33.197,37.756
33.177,37.673
33.16,37.585
33.146,37.49
33.135,37.389
33.125,37.282
33.116,37.168
33.109,37.048
33.102,36.922
33.095,36.793
33.088,36.66
33.081,36.526
33.073,36.389
33.066,36.251
33.059,36.112
33.055,35.972
33.052,35.831
33.052,35.692
33.053,35.555
33.056,35.421
33.06,35.289
33.063,35.162
33.066,35.038
33.068,34.917
33.07,34.8
33.07,34.688
33.071,34.581
33.071,34.477
33.072,34.377
33.073,34.28
33.074,34.186
33.076,34.095
33.077,34.006
33.078,33.92
33.077,33.837
33.074,33.755
33.07,33.675
33.064,33.597
33.057,33.52
33.048,33.444
33.038,33.371
33.028,33.301
33.018,33.234
33.008,33.171
32.997,33.113
32.987,33.06
32.977,33.012
32.968,32.969
32.958,32.932
32.95,32.9
32.942,32.874
32.936,32.851
32.932,32.831
32.929,32.813
32.928,32.797
32.93,32.781
32.934,32.767
32.94,32.752
32.948,32.737
32.957,32.722
32.967,32.706
32.977,32.689
32.987,32.671
32.996,32.652
33.004,32.633
33.009,32.613
33.012,32.594
33.013,32.573
33.012,32.553
33.008,32.532
33.003,32.513
32.996,32.497
32.987,32.483
32.976,32.469
32.964,32.45
32.95,32.424
32.934,32.39
32.918,32.349
32.901,32.306
32.884,32.262
32.869,32.222
32.854,32.188
32.84,32.163
32.827,32.146
32.814,32.139
32.801,32.14
32.787,32.147
32.773,32.16
32.756,32.177
32.738,32.194
32.719,32.21
32.699,32.221
32.679,32.226
32.659,32.225
32.639,32.216
32.619,32.201
32.6,32.18
32.582,32.154
32.564,32.124
32.548,32.091
32.532,32.056
32.518,32.02
32.505,31.984
32.494,31.949
32.486,31.915
32.48,31.883
32.479,31.853
32.484,31.825
32.497,31.797
32.521,31.772
32.558,31.75
32.612,31.73
32.685,31.711
32.784,31.693
32.912,31.675
33.074,31.656
33.276,31.635
33.521,31.613
33.81,31.588
34.145,31.56
34.524,31.53
34.944,31.499
35.399,31.467
35.88,31.435
36.377,31.403
36.88,31.373
37.378,31.345
37.86,31.32
38.317,31.295
38.741,31.271
39.123,31.247
39.459,31.223
39.745,31.199
39.981,31.173
40.166,31.147
40.302,31.12
40.393,31.091
40.442,31.062
40.452,31.032
40.429,31.002
40.378,30.972
40.302,30.944
40.207,30.917
40.096,30.891
39.974,30.866
39.844,30.841
39.71,30.817
39.573,30.796
39.435,30.777
39.297,30.761
39.161,30.748
39.027,30.737
38.895,30.727
38.767,30.719
38.643,30.712
38.521,30.709
38.403,30.709
38.288,30.716
38.176,30.733
38.066,30.765
37.957,30.819
37.85,30.902
37.746,31.023
37.645,31.193
37.547,31.422
37.452,31.719
37.363,32.09
37.278,32.535
37.198,33.055
37.122,33.645
37.051,34.301
36.983,35.015
36.917,35.775
36.853,36.568
36.788,37.377
36.724,38.185
36.659,38.976
36.593,39.735
36.527,40.447
36.461,41.103
36.397,41.694
36.335,42.215
36.277,42.66
36.223,43.03
36.172,43.326
36.121,43.55
36.071,43.707
36.025,43.805
35.985,43.851
35.954,43.851
35.933,43.813
35.925,43.745
35.93,43.65
35.947,43.537
35.977,43.41
36.018,43.274
36.069,43.132
36.128,42.988
36.193,42.842
36.262,42.696
36.332,42.55
36.402,42.404
36.469,42.257
36.533,42.111
36.592,41.963
36.646,41.814
36.695,41.662
36.738,41.507
36.774,41.349
36.804,41.187
36.826,41.023
36.84,40.856
36.848,40.688
36.848,40.519
36.841,40.351
36.827,40.184
36.809,40.021
36.786,39.863
36.759,39.71
36.729,39.563
36.696,39.42
36.659,39.28
36.618,39.142
36.573,39.006
36.524,38.87
36.472,38.734
36.415,38.596
36.356,38.456
36.293,38.315
36.227,38.172
36.159,38.03
36.09,37.888
36.02,37.748
35.949,37.609
35.877,37.474
35.805,37.343
35.734,37.22
35.663,37.105
35.592,37.001
35.523,36.908
35.456,36.829
35.39,36.763
35.325,36.712
35.262,36.675
35.2,36.654
35.14,36.648
35.081,36.658
35.024,36.683
34.968,36.721
34.915,36.772
34.865,36.834
34.817,36.906
34.773,36.986
34.731,37.073
34.692,37.165
34.655,37.262
34.62,37.36
34.585,37.457
34.551,37.551
34.517,37.64
34.484,37.722
34.452,37.798
34.423,37.866
34.395,37.927
34.371,37.98
34.349,38.024
34.331,38.059
34.315,38.084
34.303,38.097
34.292,38.101
34.283,38.094
34.275,38.077
34.269,38.05
34.263,38.011
34.258,37.962
34.254,37.902
34.25,37.832
34.246,37.753
34.242,37.668
34.238,37.576
34.235,37.48
34.231,37.38
34.227,37.276
34.223,37.17
34.218,37.06
34.213,36.947
34.207,36.832
34.2,36.715
34.193,36.597
34.184,36.477
34.175,36.356
34.165,36.234
34.154,36.112
34.142,35.988
34.129,35.865
34.115,35.743
34.101,35.621
34.087,35.501
34.074,35.381
34.062,35.262
34.051,35.144
34.039,35.026
34.028,34.91
34.016,34.796
34.004,34.683
33.991,34.57
33.977,34.457
33.963,34.345
33.947,34.233
33.93,34.123
33.911,34.015
33.892,33.91
33.873,33.808
33.854,33.707
33.834,33.607
33.814,33.508
33.794,33.413
33.774,33.32
33.76,33.232
33.753,33.15
33.753,33.072
33.758,33
33.766,32.934
33.773,32.874
33.778,32.82
33.778,32.771
33.772,32.729
33.76,32.691
33.741,32.657
33.715,32.627
33.681,32.599
33.642,32.572
33.598,32.546
33.552,32.521
33.506,32.497
33.463,32.475
33.423,32.454
33.388,32.434
33.359,32.415
33.336,32.399
33.317,32.387
33.301,32.378
33.288,32.372
33.275,32.371
33.262,32.373
33.249,32.378
33.234,32.385
33.218,32.394
33.2,32.406
33.181,32.418
33.16,32.431
33.138,32.443
33.115,32.454
33.092,32.463
33.069,32.47
33.046,32.474
33.024,32.477
33.003,32.478
32.984,32.476
32.966,32.472
32.95,32.464
32.938,32.452
32.93,32.438
32.927,32.421
32.93,32.402
32.939,32.38
32.957,32.355
32.985,32.321
33.027,32.275
33.086,32.215
33.17,32.144
33.284,32.067
33.435,31.988
33.632,31.91
33.879,31.838
34.181,31.772
34.54,31.716
34.953,31.671
35.416,31.639
35.921,31.619
36.46,31.611
37.021,31.614
37.593,31.626
38.162,31.643
38.718,31.663
39.25,31.684
39.748,31.703
40.204,31.718
40.611,31.729
40.966,31.735
41.266,31.732
41.511,31.723
41.702,31.706
41.841,31.682
41.932,31.654
41.978,31.624
41.985,31.591
41.958,31.558
41.903,31.524
41.826,31.489
41.732,31.454
41.625,31.42
41.508,31.386
41.386,31.354
41.26,31.322
41.133,31.292
41.005,31.261
40.879,31.228
40.755,31.194
40.634,31.16
40.516,31.125
40.401,31.092
40.29,31.059
40.182,31.028
40.078,30.999
39.975,30.974
39.876,30.956
39.779,30.949
39.684,30.957
39.591,30.985
39.501,31.039
39.413,31.126
39.327,31.253
39.243,31.429
39.16,31.661
39.079,31.957
39,32.324
38.922,32.766
38.847,33.282
38.775,33.869
38.705,34.52
38.636,35.227
38.569,35.976
38.503,36.756
38.437,37.55
38.371,38.345
38.304,39.124
38.236,39.872
38.166,40.576
38.094,41.225
38.02,41.811
37.944,42.328
37.866,42.774
37.788,43.147
37.71,43.45
37.634,43.683
37.562,43.852
37.494,43.96
37.432,44.015
37.377,44.023
37.329,43.993
37.289,43.933
37.257,43.849
37.233,43.747
37.218,43.632
37.209,43.509
37.208,43.38
37.211,43.249
37.217,43.118
37.226,42.986
37.236,42.856
37.246,42.726
37.257,42.595
37.266,42.462
37.273,42.326
37.279,42.185
37.282,42.04
37.283,41.888
37.282,41.732
37.278,41.57
37.272,41.404
37.262,41.236
37.248,41.065
37.229,40.895
37.207,40.725
37.18,40.558
37.149,40.393
37.113,40.231
37.073,40.073
37.028,39.92
36.977,39.771
36.92,39.627
36.856,39.488
36.787,39.353
36.712,39.223
36.632,39.097
36.548,38.973
36.46,38.851
36.369,38.73
36.274,38.608
36.175,38.484
36.073,38.36
35.967,38.234
35.861,38.107
35.753,37.98
35.644,37.853
35.535,37.727
35.427,37.603
35.318,37.482
35.211,37.368
35.106,37.262
35.002,37.165
34.902,37.08
34.806,37.008
34.715,36.95
34.628,36.907
34.548,36.879
34.473,36.867
34.404,36.87
34.34,36.887
34.281,36.917
34.226,36.957
34.174,37.007
34.126,37.066
34.079,37.131
34.034,37.2
33.991,37.272
33.949,37.344
33.908,37.415
33.87,37.484
33.834,37.548
33.8,37.608
33.769,37.661
33.742,37.708
33.719,37.748
33.7,37.78
33.685,37.804
33.673,37.818
33.662,37.822
33.651,37.813
33.641,37.794
33.629,37.764
33.617,37.724
33.605,37.675
33.592,37.618
33.58,37.553
33.569,37.478
33.559,37.395
33.55,37.302
33.542,37.201
33.536,37.092
33.532,36.977
33.53,36.857
33.529,36.733
33.531,36.607
33.534,36.478
33.539,36.349
33.544,36.219
33.549,36.09
33.555,35.964
33.559,35.843
33.563,35.728
33.565,35.622
33.564,35.524
33.561,35.436
33.556,35.356
33.549,35.283
33.541,35.215
33.53,35.151
33.517,35.088
33.503,35.023
33.487,34.955
33.469,34.883
33.451,34.808
33.432,34.729
33.412,34.648
33.391,34.566
33.368,34.483
33.345,34.399
33.322,34.316
33.298,34.233
33.275,34.152
33.253,34.074
33.232,33.999
33.213,33.927
33.197,33.859
33.182,33.794
33.17,33.733
33.159,33.674
33.149,33.619
33.139,33.566
33.13,33.517
33.12,33.471
33.109,33.428
33.096,33.386
33.083,33.345
33.069,33.304
33.054,33.264
33.04,33.226
33.025,33.189
33.009,33.154
32.994,33.122
32.978,33.093
32.961,33.066
32.944,33.041
32.926,33.018
32.909,32.998
32.891,32.979
32.873,32.962
32.853,32.947
32.832,32.933
32.81,32.921
32.787,32.912
32.764,32.905
32.74,32.901
32.716,32.899
32.691,32.898
32.667,32.896
32.643,32.891
32.618,32.882
32.594,32.87
32.569,32.855
32.544,32.838
32.519,32.819
32.493,32.799
32.467,32.778
32.442,32.758
32.418,32.739
32.395,32.72
32.375,32.702
32.358,32.683
32.345,32.663
32.337,32.641
32.332,32.616
32.333,32.587
32.341,32.554
32.357,32.518
32.382,32.479
32.422,32.437
32.479,32.393
32.56,32.345
32.67,32.294
32.815,32.241
33.002,32.186
33.235,32.129
33.518,32.072
33.851,32.015
34.234,31.96
34.662,31.908
35.13,31.861
35.63,31.819
36.152,31.784
36.687,31.756
37.224,31.734
37.751,31.716
38.258,31.702
38.736,31.691
39.177,31.68
39.575,31.67
39.924,31.66
40.222,31.65
40.469,31.64
40.666,31.629
40.815,31.616
40.918,31.601
40.98,31.585
41.004,31.567
40.996,31.548
40.958,31.528
40.896,31.508
40.813,31.488
40.716,31.469
40.608,31.451
40.493,31.434
40.375,31.42
40.256,31.407
40.139,31.397
40.024,31.388
39.913,31.38
39.806,31.37
39.703,31.358
39.604,31.343
39.508,31.326
39.416,31.306
39.325,31.286
39.236,31.265
39.148,31.245
39.06,31.226
38.972,31.208
38.884,31.192
38.795,31.178
38.707,31.165
38.618,31.154
38.531,31.142
38.444,31.129
38.358,31.113
38.273,31.095
38.19,31.075
38.109,31.054
38.03,31.031
37.951,31.01
37.873,30.993
37.797,30.983
37.722,30.985
37.648,31.003
37.577,31.045
37.509,31.119
37.444,31.233
37.383,31.396
37.328,31.617
37.278,31.903
37.235,32.26
37.199,32.691
37.172,33.198
37.152,33.777
37.141,34.425
37.139,35.132
37.144,35.886
37.156,36.673
37.174,37.478
37.197,38.286
37.224,39.079
37.253,39.844
37.282,40.567
37.312,41.237
37.341,41.846
37.367,42.387
37.39,42.856
37.408,43.251
37.421,43.573
37.426,43.825
37.426,44.012
37.42,44.141
37.41,44.217
37.396,44.25
37.378,44.244
37.358,44.208
37.336,44.147
37.312,44.068
37.287,43.975
37.263,43.871
37.241,43.759
37.219,43.641
37.199,43.518
37.18,43.39
37.161,43.259
37.143,43.124
37.123,42.986
37.1,42.844
37.074,42.697
37.044,42.546
37.01,42.389
36.972,42.225
36.928,42.056
36.878,41.882
36.823,41.705
36.763,41.527
36.697,41.349
36.627,41.172
36.553,40.997
36.475,40.826
36.392,40.659
36.305,40.498
36.214,40.344
36.12,40.197
36.024,40.057
35.926,39.923
35.827,39.796
35.727,39.674
35.628,39.555
35.53,39.437
35.434,39.321
35.34,39.204
35.249,39.086
35.161,38.964
35.077,38.839
34.996,38.711
34.92,38.579
34.848,38.445
34.779,38.309
34.715,38.175
34.653,38.043
34.594,37.915
34.538,37.793
34.484,37.677
34.434,37.569
34.386,37.47
34.341,37.382
34.299,37.305
34.26,37.243
34.226,37.195
34.194,37.163
34.166,37.146
34.139,37.145
34.114,37.16
34.09,37.19
34.069,37.234
34.05,37.292
34.035,37.362
34.023,37.441
34.016,37.526
34.012,37.615
34.011,37.706
34.013,37.797
34.016,37.884
34.021,37.967
34.025,38.045
34.028,38.116
34.029,38.178
34.026,38.231
34.021,38.273
34.013,38.304
34.003,38.322
33.991,38.33
33.977,38.325
33.96,38.305
33.941,38.268
33.921,38.216
33.899,38.149
33.876,38.072
33.852,37.987
33.827,37.896
33.801,37.801
33.774,37.704
33.748,37.607
33.723,37.509
33.7,37.411
33.678,37.313
33.66,37.212
33.643,37.109
33.63,37.002
33.618,36.89
33.608,36.773
33.6,36.65
33.593,36.522
33.587,36.388
33.581,36.251
33.574,36.112
33.566,35.971
33.557,35.831
33.545,35.691
33.531,35.552
33.513,35.415
33.493,35.28
33.47,35.148
33.445,35.021
33.419,34.899
33.392,34.783
33.364,34.672
33.336,34.567
33.308,34.467
33.28,34.372
33.251,34.281
33.223,34.197
33.195,34.118
33.167,34.043
33.139,33.974
33.111,33.908
33.083,33.847
33.054,33.789
33.025,33.734
32.996,33.683
32.966,33.635
32.936,33.589
32.905,33.544
32.875,33.499
32.845,33.454
32.816,33.41
32.786,33.367
32.754,33.324
32.72,33.283
32.684,33.244
32.648,33.206
32.61,33.172
32.573,33.141
32.536,33.115
32.498,33.093
32.461,33.074
32.425,33.058
32.389,33.043
32.354,33.029
32.321,33.016
32.29,33.005
32.261,32.994
32.235,32.986
32.21,32.981
32.185,32.979
32.161,32.979
32.137,32.982
32.113,32.986
32.089,32.991
32.067,32.997
32.046,33.004
32.027,33.011
32.011,33.018
31.997,33.025
31.988,33.03
31.984,33.034
31.984,33.037
31.989,33.038
32,33.036
32.018,33.031
32.045,33.022
32.085,33.009
32.145,32.991
32.23,32.969
32.348,32.944
32.507,32.916
32.713,32.886
32.973,32.855
33.29,32.822
33.665,32.788
34.096,32.75
34.579,32.711
35.106,32.67
35.668,32.63
36.253,32.589
36.848,32.55
37.442,32.513
38.021,32.479
38.574,32.449
39.09,32.422
39.561,32.398
39.983,32.377
40.35,32.358
40.66,32.34
40.914,32.32
41.113,32.298
41.259,32.272
41.355,32.242
41.406,32.209
41.417,32.173
41.392,32.135
41.338,32.096
41.262,32.057
41.167,32.018
41.058,31.98
40.94,31.944
40.814,31.909
40.684,31.876
40.551,31.843
40.418,31.81
40.284,31.777
40.151,31.743
40.019,31.709
39.887,31.674
39.756,31.64
39.626,31.608
39.495,31.58
39.363,31.558
39.233,31.546
39.103,31.546
38.976,31.561
38.851,31.594
38.729,31.649
38.611,31.73
38.497,31.841
38.386,31.988
38.281,32.18
38.18,32.421
38.086,32.718
37.997,33.074
37.914,33.49
37.838,33.967
37.767,34.5
37.7,35.083
37.637,35.709
37.575,36.367
37.515,37.045
37.455,37.731
37.394,38.413
37.331,39.078
37.266,39.717
37.2,40.319
37.133,40.876
37.064,41.382
36.994,41.832
36.925,42.223
36.855,42.556
36.787,42.83
36.721,43.049
36.657,43.215
36.597,43.332
36.54,43.404
36.489,43.434
36.443,43.429
36.403,43.394
36.371,43.334
36.345,43.256
36.327,43.164
36.316,43.061
36.312,42.949
36.315,42.828
36.324,42.701
36.338,42.568
36.357,42.432
36.379,42.295
36.403,42.158
36.427,42.018
36.451,41.876
36.473,41.729
36.494,41.577
36.51,41.422
36.524,41.266
36.534,41.109
36.54,40.952
36.541,40.796
36.536,40.641
36.527,40.487
36.512,40.335
36.492,40.185
36.466,40.039
36.435,39.896
36.4,39.759
36.361,39.627
36.318,39.501
36.272,39.379
36.223,39.263
36.169,39.152
36.112,39.045
36.051,38.941
35.986,38.838
35.919,38.734
35.85,38.628
35.779,38.519
35.707,38.407
35.635,38.292
35.562,38.173
35.489,38.052
35.417,37.928
35.344,37.803
35.27,37.678
35.196,37.556
35.122,37.436
35.048,37.323
34.973,37.218
34.9,37.124
34.827,37.043
34.757,36.976
34.688,36.922
34.622,36.88
34.559,36.849
34.497,36.829
34.438,36.82
34.38,36.823
34.322,36.836
34.266,36.861
34.212,36.895
34.159,36.939
34.11,36.99
34.063,37.047
34.019,37.11
33.977,37.174
33.937,37.24
33.898,37.304
33.862,37.365
33.828,37.423
33.795,37.474
33.765,37.518
33.736,37.553
33.71,37.579
33.686,37.595
33.664,37.601
33.643,37.597
33.622,37.584
33.602,37.561
33.582,37.528
33.563,37.486
33.544,37.435
33.528,37.378
33.513,37.315
33.5,37.246
33.489,37.17
33.48,37.088
33.474,37
33.47,36.907
33.466,36.81
33.464,36.709
33.462,36.605
33.46,36.497
33.457,36.386
33.452,36.274
33.446,36.161
33.437,36.048
33.427,35.934
33.415,35.82
33.402,35.705
33.389,35.588
33.374,35.471
33.36,35.351
33.344,35.231
33.328,35.107
33.312,34.982
33.296,34.854
33.28,34.724
33.265,34.592
33.252,34.458
33.24,34.321
33.231,34.182
33.224,34.042
33.217,33.904
33.212,33.767
33.206,33.633
33.201,33.503
33.196,33.377
33.19,33.255
33.184,33.14
33.177,33.031
33.168,32.929
33.159,32.835
33.149,32.747
33.138,32.666
33.126,32.592
33.114,32.525
33.101,32.464
33.087,32.41
33.072,32.363
33.055,32.322
33.037,32.286
33.02,32.253
33.002,32.223
32.985,32.195
32.967,32.168
32.95,32.143
32.933,32.119
32.915,32.096
32.897,32.074
32.879,32.052
32.86,32.031
32.841,32.011
32.822,31.992
32.805,31.974
32.788,31.958
32.772,31.942
32.757,31.925
32.743,31.907
32.73,31.887
32.716,31.866
32.702,31.845
32.687,31.824
32.672,31.806
32.656,31.789
32.639,31.773
32.621,31.759
32.601,31.746
32.581,31.735
32.561,31.727
32.54,31.719
32.519,31.713
32.499,31.706
32.479,31.698
32.46,31.688
32.441,31.676
32.422,31.663
32.403,31.648
32.384,31.634
32.366,31.619
32.349,31.605
32.333,31.59
32.318,31.576
32.302,31.564
32.288,31.554
32.274,31.547
32.26,31.543
32.249,31.541
32.239,31.54
32.23,31.539
32.225,31.539
32.223,31.539
32.228,31.538
32.242,31.537
32.269,31.535
32.313,31.529
32.381,31.519
32.476,31.505
32.605,31.486
32.774,31.462
32.987,31.436
33.249,31.408
33.561,31.379
33.924,31.347
34.334,31.315
34.787,31.282
35.276,31.249
35.792,31.216
36.326,31.184
36.866,31.152
37.401,31.121
37.92,31.09
38.413,31.059
38.871,31.028
39.289,30.999
39.662,30.97
39.988,30.942
40.265,30.915
40.493,30.888
40.671,30.861
40.799,30.834
40.881,30.808
40.921,30.781
40.921,30.756
40.888,30.731
40.825,30.707
40.737,30.685
40.631,30.665
40.508,30.646
40.374,30.629
40.23,30.614
40.081,30.603
39.927,30.595
39.772,30.591
39.617,30.594
39.464,30.607
39.315,30.635
39.17,30.685
39.031,30.766
38.898,30.887
38.771,31.057
38.65,31.285
38.535,31.578
38.427,31.943
38.325,32.385
38.232,32.904
38.145,33.498
38.064,34.162
37.987,34.887
37.915,35.66
37.845,36.467
37.778,37.292
37.713,38.117
37.65,38.927
37.589,39.704
37.53,40.437
37.472,41.112
37.415,41.72
37.357,42.254
37.298,42.712
37.239,43.092
37.18,43.398
37.119,43.632
37.058,43.802
36.996,43.914
36.933,43.974
36.87,43.991
36.808,43.97
36.745,43.92
36.684,43.847
36.626,43.755
36.573,43.65
36.525,43.537
36.485,43.418
36.453,43.295
36.43,43.169
36.416,43.04
36.411,42.908
36.416,42.775
36.431,42.638
36.454,42.499
36.485,42.357
36.524,42.212
36.568,42.062
36.617,41.908
36.67,41.747
36.725,41.579
36.783,41.406
36.841,41.229
36.897,41.05
36.949,40.873
36.997,40.7
37.038,40.533
37.073,40.374
37.102,40.222
37.125,40.079
37.141,39.947
37.151,39.824
37.155,39.709
37.152,39.6
37.142,39.495
37.125,39.393
37.1,39.29
37.068,39.186
37.029,39.077
36.981,38.964
36.926,38.843
36.863,38.716
36.793,38.583
36.717,38.444
36.635,38.3
36.548,38.153
36.457,38.005
36.362,37.858
36.265,37.716
36.167,37.58
36.069,37.452
35.971,37.333
35.873,37.225
35.777,37.127
35.681,37.043
35.586,36.971
35.492,36.915
35.399,36.874
35.306,36.848
35.215,36.837
35.125,36.84
35.038,36.856
34.952,36.885
34.869,36.926
34.788,36.976
34.71,37.035
34.635,37.102
34.562,37.173
34.492,37.249
34.425,37.327
34.361,37.405
34.3,37.482
34.242,37.555
34.187,37.623
34.134,37.684
34.084,37.739
34.038,37.785
33.995,37.823
33.957,37.852
33.923,37.872
33.894,37.884
33.869,37.887
33.849,37.88
33.833,37.863
33.821,37.835
33.813,37.796
33.807,37.746
33.804,37.686
33.801,37.618
33.799,37.541
33.796,37.458
33.793,37.367
33.79,37.271
33.787,37.169
33.783,37.062
33.779,36.953
33.776,36.842
33.773,36.728
33.77,36.613
33.767,36.496
33.762,36.377
33.756,36.256
33.748,36.135
33.739,36.012
33.729,35.889
33.717,35.764
33.706,35.638
33.694,35.511
33.683,35.384
33.674,35.257
33.666,35.131
33.659,35.007
33.653,34.885
33.647,34.766
33.642,34.651
33.635,34.538
33.628,34.428
33.619,34.32
33.609,34.214
33.598,34.112
33.585,34.012
33.57,33.914
33.554,33.819
33.536,33.726
33.516,33.636
33.495,33.55
33.472,33.467
33.448,33.389
33.421,33.315
33.392,33.246
33.361,33.182
33.328,33.123
33.294,33.069
33.261,33.02
33.227,32.976
33.194,32.939
33.162,32.908
33.13,32.881
33.099,32.859
33.068,32.84
33.039,32.823
33.009,32.808
32.978,32.795
32.945,32.783
32.911,32.773
32.875,32.765
32.836,32.759
32.796,32.755
32.755,32.754
32.715,32.756
32.676,32.76
32.637,32.767
32.601,32.776
32.566,32.785
32.535,32.794
32.508,32.803
32.485,32.811
32.466,32.82
32.452,32.829
32.442,32.838
32.436,32.847
32.434,32.854
32.434,32.858
32.434,32.858
32.434,32.852
32.433,32.842
32.429,32.828
32.423,32.81
32.413,32.791
32.401,32.772
32.386,32.753
32.369,32.736
32.349,32.721
32.328,32.709
32.306,32.699
32.282,32.689
32.257,32.68
32.23,32.671
32.203,32.659
32.174,32.646
32.144,32.63
32.112,32.614
32.08,32.598
32.049,32.583
32.019,32.568
31.991,32.553
31.966,32.538
31.944,32.522
31.925,32.506
31.908,32.488
31.894,32.467
31.883,32.442
31.876,32.413
31.872,32.38
31.875,32.343
31.885,32.302
31.908,32.259
31.948,32.213
32.009,32.165
32.1,32.116
32.227,32.063
32.397,32.005
32.618,31.944
32.893,31.877
33.227,31.808
33.621,31.737
34.072,31.664
34.575,31.593
35.122,31.522
35.701,31.454
36.301,31.39
36.91,31.33
37.513,31.275
38.097,31.228
38.649,31.19
39.159,31.164
39.618,31.152
40.02,31.158
40.362,31.189
40.642,31.25
40.862,31.35
41.026,31.498
41.136,31.7
41.198,31.961
41.217,32.287
41.2,32.679
41.151,33.138
41.076,33.663
40.98,34.25
40.868,34.892
40.742,35.579
40.608,36.3
40.469,37.04
40.327,37.786
40.183,38.524
40.039,39.24
39.895,39.923
39.753,40.562
39.611,41.15
39.471,41.679
39.332,42.145
39.193,42.546
39.056,42.882
38.921,43.156
38.789,43.372
38.661,43.533
38.536,43.645
38.415,43.714
38.299,43.747
38.189,43.748
38.084,43.724
37.985,43.68
37.893,43.618
37.809,43.544
37.731,43.46
37.659,43.367
37.593,43.267
37.532,43.161
37.474,43.051
37.42,42.935
37.368,42.814
37.317,42.687
37.266,42.554
37.215,42.416
37.163,42.272
37.108,42.123
37.051,41.969
36.991,41.811
36.93,41.651
36.867,41.491
36.804,41.33
36.742,41.171
36.681,41.014
36.624,40.86
36.57,40.709
36.521,40.562
36.477,40.419
36.439,40.28
36.408,40.144
36.384,40.011
36.368,39.881
36.361,39.751
36.363,39.621
36.374,39.489
36.394,39.354
36.421,39.215
36.455,39.072
36.494,38.926
36.538,38.779
36.585,38.631
36.634,38.482
36.686,38.331
36.738,38.181
36.789,38.033
36.837,37.89
36.882,37.753
36.922,37.627
36.957,37.513
36.985,37.413
37.007,37.327
37.023,37.257
37.032,37.203
37.035,37.166
37.03,37.145
37.019,37.139
37,37.148
36.974,37.17
36.941,37.206
36.9,37.254
36.851,37.311
36.793,37.376
36.727,37.446
36.654,37.519
36.574,37.594
36.487,37.669
36.394,37.743
36.298,37.814
36.198,37.882
36.095,37.946
35.99,38.003
35.884,38.053
35.776,38.096
35.669,38.13
35.562,38.152
35.457,38.164
35.355,38.166
35.256,38.158
35.16,38.14
35.069,38.113
34.981,38.075
34.898,38.026
34.82,37.965
34.747,37.891
34.68,37.804
34.618,37.707
34.563,37.601
34.513,37.486
34.467,37.365
34.425,37.239
34.387,37.109
34.352,36.977
34.318,36.845
34.284,36.712
34.25,36.58
34.216,36.45
34.181,36.32
34.145,36.193
34.109,36.068
34.074,35.945
34.041,35.823
34.011,35.702
33.985,35.583
33.961,35.466
33.941,35.349
33.924,35.234
33.909,35.118
33.897,35.002
33.889,34.886
33.883,34.77
33.881,34.656
33.882,34.543
33.884,34.431
33.889,34.321
33.894,34.212
33.901,34.104
33.908,33.998
33.914,33.894
33.92,33.793
33.926,33.696
33.931,33.603
33.936,33.515
33.94,33.432
33.943,33.353
33.946,33.28
33.948,33.212
33.95,33.151
33.951,33.096
33.952,33.047
33.951,33.003
33.948,32.963
33.943,32.926
33.936,32.89
33.926,32.857
33.915,32.825
33.901,32.794
33.886,32.764
33.869,32.735
33.85,32.708
33.828,32.682
33.804,32.658
33.778,32.635
33.751,32.613
33.722,32.592
33.692,32.573
33.662,32.554
33.632,32.536
33.602,32.519
33.573,32.503
33.544,32.49
33.515,32.48
33.486,32.473
33.456,32.47
33.426,32.468
33.398,32.467
33.37,32.466
33.344,32.465
33.318,32.465
33.295,32.463
33.274,32.46
33.254,32.455
33.235,32.446
33.215,32.434
33.194,32.42
33.169,32.403
33.141,32.383
33.11,32.361
33.075,32.337
33.038,32.309
32.998,32.277
32.956,32.244
32.912,32.208
32.867,32.172
32.822,32.137
32.776,32.102
32.73,32.067
32.686,32.032
32.642,31.996
32.6,31.96
32.559,31.924
32.52,31.887
32.483,31.851
32.448,31.814
32.416,31.778
32.387,31.742
32.362,31.708
32.341,31.675
32.323,31.643
32.309,31.614
32.297,31.587
32.289,31.563
32.283,31.541
32.28,31.52
32.28,31.499
32.283,31.48
32.291,31.46
32.306,31.442
32.33,31.423
32.364,31.404
32.413,31.384
32.481,31.363
32.572,31.341
32.693,31.318
32.851,31.293
33.052,31.266
33.303,31.237
33.606,31.207
33.964,31.176
34.376,31.143
34.839,31.108
35.348,31.072
35.893,31.036
36.464,30.999
37.05,30.962
37.64,30.924
38.222,30.886
38.783,30.847
39.315,30.808
39.807,30.767
40.253,30.726
40.648,30.685
40.988,30.644
41.271,30.606
41.498,30.571
41.671,30.538
41.791,30.509
41.864,30.482
41.893,30.459
41.884,30.439
41.842,30.421
41.773,30.407
41.682,30.399
41.574,30.398
41.452,30.408
41.321,30.436
41.184,30.489
41.042,30.574
40.898,30.7
40.753,30.877
40.608,31.111
40.465,31.412
40.324,31.785
40.184,32.234
40.044,32.763
39.903,33.367
39.762,34.041
39.619,34.772
39.476,35.548
39.332,36.352
39.189,37.17
39.048,37.985
38.908,38.78
38.77,39.543
38.634,40.261
38.501,40.923
38.371,41.521
38.244,42.051
38.121,42.512
38,42.904
37.883,43.23
37.769,43.495
37.659,43.702
37.55,43.856
37.444,43.964
37.338,44.031
37.231,44.063
37.123,44.067
37.013,44.048
36.901,44.011
36.788,43.959
36.674,43.895
36.561,43.82
36.449,43.736
36.339,43.645
36.232,43.548
36.129,43.445
36.031,43.338
35.941,43.225
35.859,43.109
35.787,42.987
35.726,42.862
35.677,42.733
35.64,42.599
35.616,42.462
35.606,42.323
35.608,42.182
35.624,42.041
35.651,41.9
35.688,41.76
35.734,41.623
35.788,41.488
35.848,41.357
35.913,41.229
35.981,41.102
36.05,40.977
36.121,40.852
36.19,40.727
36.257,40.602
36.32,40.477
36.379,40.35
36.431,40.222
36.476,40.093
36.514,39.962
36.545,39.829
36.568,39.693
36.584,39.555
36.593,39.414
36.595,39.271
36.592,39.127
36.582,38.983
36.567,38.842
36.546,38.706
36.52,38.574
36.487,38.449
36.45,38.332
36.407,38.223
36.359,38.126
36.306,38.041
36.249,37.969
36.188,37.909
36.124,37.863
36.057,37.829
35.988,37.808
35.917,37.8
35.845,37.803
35.772,37.819
35.699,37.845
35.625,37.88
35.55,37.923
35.476,37.972
35.403,38.025
35.33,38.08
35.259,38.136
35.19,38.192
35.123,38.246
35.057,38.297
34.991,38.343
34.925,38.384
34.86,38.418
34.794,38.446
34.728,38.465
34.663,38.477
34.598,38.48
34.535,38.474
34.474,38.459
34.414,38.433
34.356,38.399
34.301,38.354
34.247,38.3
34.196,38.238
34.151,38.169
34.118,38.093
34.098,38.01
34.087,37.92
34.085,37.823
34.086,37.719
34.089,37.608
34.088,37.493
34.081,37.374
34.068,37.252
34.047,37.126
34.017,36.997
33.98,36.863
33.935,36.726
33.886,36.587
33.833,36.446
33.777,36.306
33.721,36.166
33.666,36.026
33.613,35.889
33.564,35.753
33.52,35.62
33.479,35.491
33.443,35.364
33.41,35.241
33.381,35.119
33.355,35
33.33,34.881
33.306,34.762
33.284,34.643
33.264,34.523
33.246,34.405
33.23,34.289
33.216,34.176
33.204,34.067
33.193,33.962
33.183,33.862
33.174,33.767
33.166,33.677
33.159,33.593
33.152,33.514
33.147,33.44
33.142,33.372
33.138,33.308
33.135,33.25
33.134,33.198
33.135,33.15
33.137,33.106
33.141,33.067
33.145,33.033
33.15,33.001
33.153,32.971
33.155,32.942
33.157,32.914
33.158,32.888
33.158,32.864
33.157,32.843
33.155,32.824
33.151,32.808
33.144,32.794
33.132,32.783
33.112,32.776
33.087,32.772
33.059,32.771
33.028,32.772
32.998,32.774
32.968,32.776
32.94,32.779
32.915,32.783
32.892,32.785
32.873,32.788
32.856,32.788
32.842,32.786
32.829,32.781
32.818,32.77
32.806,32.754
32.793,32.734
32.777,32.71
32.759,32.684
32.738,32.658
32.713,32.632
32.685,32.606
32.653,32.582
32.618,32.559
32.579,32.538
32.538,32.517
32.494,32.497
32.448,32.477
32.4,32.457
32.351,32.435
32.301,32.412
32.25,32.387
32.2,32.361
32.151,32.332
32.104,32.303
32.059,32.272
32.016,32.241
31.975,32.209
31.937,32.174
31.901,32.138
31.867,32.1
31.836,32.061
31.808,32.021
31.785,31.981
31.766,31.942
31.753,31.906
31.75,31.871
31.759,31.84
31.785,31.811
31.831,31.784
31.903,31.759
32.006,31.735
32.148,31.712
32.336,31.689
32.575,31.665
32.872,31.639
33.227,31.613
33.642,31.588
34.114,31.562
34.638,31.537
35.205,31.512
35.806,31.486
36.429,31.46
37.06,31.432
37.685,31.404
38.294,31.375
38.874,31.344
39.415,31.313
39.909,31.281
40.351,31.248
40.734,31.214
41.058,31.179
41.321,31.144
41.524,31.108
41.672,31.07
41.768,31.03
41.818,30.986
41.828,30.938
41.803,30.889
41.748,30.839
41.67,30.792
41.573,30.75
41.463,30.717
41.341,30.697
41.213,30.693
41.08,30.709
40.945,30.751
40.809,30.824
40.673,30.936
40.537,31.093
40.402,31.304
40.268,31.574
40.134,31.908
40.002,32.311
39.869,32.784
39.735,33.326
39.602,33.933
39.469,34.597
39.338,35.307
39.209,36.051
39.082,36.812
38.96,37.576
38.843,38.33
38.732,39.06
38.627,39.757
38.528,40.409
38.435,41.008
38.347,41.548
38.264,42.022
38.186,42.429
38.11,42.769
38.036,43.043
37.963,43.258
37.89,43.42
37.813,43.534
37.734,43.606
37.651,43.641
37.564,43.644
37.474,43.62
37.382,43.574
37.288,43.511
37.194,43.437
37.101,43.353
37.011,43.262
36.923,43.163
36.841,43.057
36.763,42.943
36.692,42.822
36.628,42.694
36.573,42.56
36.526,42.421
36.487,42.275
36.456,42.124
36.431,41.966
36.411,41.803
36.397,41.634
36.388,41.461
36.386,41.287
36.39,41.111
36.4,40.934
36.416,40.758
36.437,40.583
36.462,40.411
36.49,40.244
36.52,40.081
36.551,39.923
36.582,39.77
36.611,39.622
36.638,39.477
36.663,39.337
36.684,39.199
36.701,39.063
36.714,38.928
36.721,38.792
36.722,38.656
36.719,38.52
36.711,38.384
36.698,38.247
36.682,38.109
36.66,37.972
36.634,37.835
36.603,37.702
36.567,37.576
36.526,37.458
36.48,37.35
36.429,37.252
36.373,37.166
36.311,37.093
36.245,37.034
36.174,36.992
36.098,36.966
36.02,36.958
35.938,36.964
35.853,36.985
35.767,37.017
35.68,37.059
35.593,37.108
35.507,37.164
35.421,37.226
35.338,37.292
35.257,37.361
35.179,37.434
35.103,37.508
35.029,37.583
34.957,37.657
34.887,37.728
34.817,37.795
34.749,37.856
34.682,37.91
34.616,37.956
34.551,37.993
34.486,38.022
34.42,38.039
34.352,38.046
34.285,38.043
34.218,38.03
34.153,38.008
34.091,37.975
34.034,37.932
33.982,37.877
33.935,37.811
33.894,37.735
33.859,37.651
33.829,37.559
33.803,37.459
33.781,37.353
33.761,37.239
33.743,37.119
33.728,36.993
33.716,36.865
33.706,36.733
33.698,36.599
33.692,36.464
33.687,36.327
33.682,36.19
33.678,36.052
33.674,35.914
33.669,35.778
33.665,35.641
33.661,35.505
33.658,35.369
33.657,35.234
33.658,35.099
33.662,34.964
33.669,34.828
33.677,34.693
33.686,34.558
33.696,34.425
33.706,34.296
33.714,34.17
33.721,34.048
33.726,33.931
33.728,33.817
33.729,33.708
33.729,33.605
33.728,33.509
33.728,33.418
33.728,33.334
33.728,33.255
33.728,33.182
33.727,33.114
33.726,33.049
33.724,32.989
33.722,32.931
33.721,32.876
33.719,32.822
33.718,32.77
33.717,32.719
33.716,32.67
33.716,32.623
33.716,32.58
33.714,32.541
33.712,32.506
33.707,32.473
33.701,32.444
33.692,32.418
33.68,32.394
33.666,32.374
33.649,32.359
33.631,32.347
33.611,32.338
33.59,32.332
33.567,32.327
33.544,32.324
33.522,32.322
33.501,32.321
33.481,32.318
33.461,32.314
33.441,32.309
33.422,32.302
33.403,32.293
33.383,32.281
33.364,32.269
33.344,32.256
33.321,32.242
33.297,32.229
33.269,32.216
33.239,32.204
33.207,32.192
33.171,32.18
33.133,32.17
33.094,32.161
33.054,32.153
33.013,32.145
32.972,32.138
32.932,32.13
32.893,32.122
32.855,32.113
32.819,32.101
32.785,32.086
32.755,32.067
32.727,32.044
32.704,32.017
32.684,31.983
32.668,31.945
32.657,31.903
32.652,31.86
32.654,31.816
32.665,31.773
32.687,31.731
32.724,31.691
32.78,31.652
32.861,31.616
32.974,31.581
33.125,31.549
33.321,31.518
33.567,31.49
33.866,31.463
34.22,31.438
34.628,31.415
35.086,31.393
35.588,31.372
36.123,31.353
36.683,31.335
37.255,31.319
37.828,31.303
38.388,31.287
38.924,31.27
39.427,31.252
39.888,31.232
40.3,31.212
40.66,31.19
40.965,31.168
41.214,31.144
41.408,31.12
41.549,31.093
41.641,31.063
41.688,31.032
41.695,30.998
41.667,30.963
41.61,30.925
41.529,30.886
41.431,30.844
41.318,30.8
41.197,30.756
41.069,30.712
40.937,30.669
40.803,30.624
40.668,30.571
40.533,30.506
40.397,30.431
40.26,30.349
40.124,30.263
39.986,30.179
39.848,30.104
39.71,30.042
39.572,30
39.435,29.98
39.3,29.989
39.167,30.031
39.036,30.111
38.908,30.235
38.785,30.408
38.667,30.638
38.553,30.93
38.445,31.288
38.342,31.719
38.245,32.223
38.154,32.8
38.067,33.446
37.983,34.154
37.9,34.915
37.818,35.714
37.735,36.538
37.651,37.37
37.566,38.195
37.479,38.999
37.39,39.768
37.3,40.491
37.209,41.158
37.118,41.761
37.027,42.294
36.937,42.756
36.851,43.144
36.769,43.463
36.694,43.715
36.626,43.907
36.567,44.043
36.517,44.129
36.476,44.173
36.445,44.18
36.425,44.156
36.42,44.107
36.431,44.037
36.456,43.953
36.491,43.857
36.535,43.751
36.582,43.639
36.63,43.52
36.676,43.395
36.717,43.265
36.752,43.13
36.781,42.991
36.803,42.847
36.82,42.7
36.833,42.548
36.841,42.392
36.847,42.233
36.85,42.072
36.851,41.908
36.852,41.744
36.852,41.581
36.851,41.419
36.851,41.26
36.85,41.104
36.85,40.95
36.849,40.8
36.846,40.653
36.841,40.511
36.833,40.375
36.82,40.244
36.803,40.118
36.783,39.998
36.759,39.881
36.731,39.766
36.702,39.652
36.669,39.538
36.635,39.424
36.597,39.307
36.555,39.189
36.509,39.067
36.459,38.942
36.404,38.813
36.345,38.68
36.281,38.546
36.213,38.411
36.14,38.277
36.063,38.147
35.984,38.021
35.902,37.901
35.82,37.789
35.738,37.685
35.656,37.591
35.576,37.509
35.498,37.439
35.423,37.384
35.351,37.343
35.283,37.317
35.219,37.304
35.157,37.306
35.099,37.32
35.043,37.346
34.989,37.384
34.936,37.43
34.884,37.485
34.833,37.545
34.783,37.61
34.733,37.678
34.684,37.745
34.635,37.812
34.586,37.877
34.537,37.939
34.488,37.995
34.437,38.045
34.387,38.086
34.339,38.118
34.291,38.139
34.245,38.149
34.202,38.147
34.161,38.133
34.122,38.108
34.086,38.071
34.052,38.025
34.02,37.97
33.989,37.906
33.959,37.834
33.929,37.756
33.9,37.671
33.869,37.578
33.839,37.479
33.808,37.373
33.776,37.26
33.742,37.142
33.707,37.02
33.669,36.895
33.628,36.767
33.586,36.635
33.541,36.5
33.494,36.362
33.447,36.22
33.399,36.077
33.35,35.932
33.303,35.787
33.256,35.643
33.211,35.501
33.166,35.361
33.12,35.225
33.075,35.092
33.029,34.961
32.984,34.831
32.94,34.703
32.897,34.578
32.856,34.456
32.818,34.336
32.782,34.218
32.75,34.104
32.722,33.992
32.697,33.882
32.676,33.774
32.659,33.668
32.644,33.562
32.633,33.456
32.624,33.35
32.617,33.247
32.614,33.146
32.613,33.05
32.615,32.959
32.62,32.875
32.627,32.799
32.637,32.731
32.65,32.671
32.665,32.62
32.682,32.576
32.699,32.54
32.716,32.509
32.734,32.485
32.751,32.465
32.77,32.448
32.79,32.433
32.813,32.421
32.837,32.41
32.864,32.402
32.892,32.395
32.92,32.388
32.949,32.379
32.975,32.367
32.999,32.353
33.02,32.337
33.035,32.319
33.045,32.3
33.049,32.279
33.047,32.258
33.039,32.237
33.027,32.215
33.011,32.194
32.991,32.172
32.969,32.151
32.945,32.13
32.92,32.108
32.892,32.085
32.864,32.059
32.836,32.032
32.808,32.003
32.782,31.974
32.76,31.945
32.742,31.918
32.728,31.891
32.721,31.866
32.72,31.841
32.728,31.818
32.748,31.796
32.783,31.778
32.839,31.762
32.922,31.749
33.039,31.739
33.197,31.729
33.402,31.72
33.661,31.709
33.975,31.697
34.347,31.682
34.773,31.666
35.248,31.647
35.765,31.626
36.313,31.601
36.881,31.574
37.455,31.544
38.025,31.511
38.576,31.477
39.098,31.441
39.584,31.404
40.027,31.365
40.422,31.325
40.765,31.286
41.052,31.248
41.279,31.211
41.448,31.175
41.559,31.14
41.614,31.104
41.619,31.067
41.578,31.028
41.497,30.986
41.381,30.941
41.236,30.896
41.069,30.85
40.885,30.805
40.69,30.761
40.487,30.719
40.281,30.681
40.074,30.647
39.87,30.618
39.67,30.593
39.477,30.573
39.292,30.555
39.116,30.54
38.948,30.526
38.789,30.512
38.639,30.499
38.498,30.487
38.366,30.478
38.245,30.469
38.133,30.462
38.031,30.456
37.938,30.449
37.854,30.442
37.778,30.434
37.71,30.426
37.649,30.416
37.597,30.404
37.551,30.388
37.513,30.369
37.479,30.347
37.45,30.323
37.426,30.296
37.404,30.268
37.382,30.238
37.361,30.207
37.337,30.174
37.31,30.139
37.279,30.103
37.241,30.067
37.198,30.032
37.148,29.999
37.092,29.969
37.03,29.943
36.964,29.922
36.896,29.908
36.827,29.905
36.76,29.915
36.695,29.944
36.635,29.997
36.582,30.079
36.537,30.199
36.502,30.361
36.477,30.576
36.464,30.851
36.463,31.195
36.474,31.613
36.496,32.109
36.529,32.682
36.57,33.327
36.618,34.04
36.671,34.808
36.728,35.62
36.787,36.459
36.847,37.31
36.906,38.156
36.963,38.98
37.019,39.767
37.071,40.503
37.118,41.178
37.159,41.783
37.194,42.314
37.221,42.766
37.242,43.139
37.256,43.433
37.262,43.653
37.259,43.804
37.248,43.895
37.227,43.935
37.198,43.932
37.16,43.895
37.114,43.832
37.06,43.748
37,43.65
36.935,43.54
36.865,43.422
36.793,43.298
36.717,43.172
36.64,43.045
36.561,42.916
36.48,42.787
36.397,42.656
36.314,42.523
36.23,42.387
36.144,42.248
36.057,42.104
35.967,41.956
35.875,41.803
35.781,41.645
35.687,41.483
35.593,41.316
35.498,41.147
35.405,40.977
35.312,40.808
35.221,40.64
35.132,40.476
35.045,40.316
34.961,40.162
34.879,40.013
34.8,39.869
34.722,39.729
34.648,39.593
34.575,39.46
34.504,39.329
34.436,39.2
34.37,39.072
34.309,38.944
34.251,38.814
34.198,38.683
34.15,38.551
34.105,38.418
34.065,38.285
34.027,38.152
33.992,38.021
33.96,37.89
33.93,37.761
33.902,37.634
33.876,37.512
33.851,37.396
33.826,37.288
33.802,37.19
33.778,37.104
33.754,37.031
33.732,36.972
33.71,36.928
33.689,36.9
33.669,36.887
33.649,36.889
33.63,36.906
33.611,36.937
33.593,36.982
33.576,37.037
33.561,37.102
33.547,37.174
33.536,37.252
33.527,37.333
33.521,37.416
33.518,37.5
33.517,37.585
33.52,37.668
33.526,37.747
33.534,37.821
33.544,37.888
33.555,37.948
33.564,37.998
33.573,38.038
33.58,38.067
33.584,38.085
33.586,38.091
33.585,38.084
33.582,38.065
33.576,38.033
33.569,37.991
33.56,37.939
33.551,37.877
33.542,37.806
33.533,37.727
33.523,37.64
33.513,37.545
33.502,37.443
33.491,37.335
33.479,37.22
33.467,37.099
33.456,36.973
33.446,36.842
33.438,36.709
33.432,36.573
33.428,36.435
33.427,36.295
33.426,36.156
33.421,36.018
33.411,35.881
33.395,35.746
33.375,35.612
33.352,35.48
33.329,35.35
33.307,35.223
33.287,35.099
33.271,34.978
33.259,34.859
33.251,34.742
33.247,34.626
33.245,34.512
33.245,34.399
33.245,34.289
33.244,34.181
33.241,34.076
33.236,33.973
33.227,33.873
33.213,33.777
33.194,33.684
33.17,33.594
33.14,33.508
33.107,33.426
33.069,33.348
33.03,33.274
32.989,33.202
32.949,33.133
32.911,33.067
32.874,33.004
32.839,32.944
32.808,32.888
32.78,32.835
32.757,32.784
32.74,32.736
32.731,32.69
32.734,32.647
32.753,32.607
32.793,32.572
32.861,32.539
32.964,32.51
33.109,32.483
33.301,32.459
33.544,32.436
33.843,32.416
34.197,32.397
34.604,32.381
35.059,32.368
35.557,32.356
36.087,32.346
36.64,32.339
37.202,32.335
37.762,32.334
38.307,32.337
38.826,32.343
39.311,32.351
39.754,32.359
40.148,32.366
40.49,32.371
40.778,32.373
41.01,32.373
41.187,32.371
41.312,32.368
41.388,32.363
41.42,32.354
41.411,32.341
41.367,32.325
41.294,32.303
41.195,32.277
41.076,32.248
40.941,32.214
40.794,32.177
40.639,32.136
40.478,32.093
40.314,32.048
40.15,32.003
39.988,31.958
39.829,31.914
39.675,31.871
39.527,31.827
39.387,31.782
39.255,31.736
39.132,31.69
39.019,31.644
38.914,31.599
38.819,31.556
38.732,31.516
38.654,31.477
38.584,31.441
38.523,31.408
38.469,31.377
38.422,31.349
38.381,31.326
38.344,31.305
38.311,31.287
38.281,31.27
38.253,31.254
38.226,31.238
38.199,31.22
38.17,31.202
38.14,31.183
38.106,31.163
38.068,31.141
38.027,31.119
37.981,31.094
37.93,31.067
37.876,31.037
37.818,31.005
37.755,30.969
37.69,30.93
37.622,30.889
37.555,30.846
37.49,30.8
37.426,30.754
37.365,30.708
37.307,30.661
37.253,30.615
37.203,30.568
37.16,30.522
37.122,30.477
37.091,30.432
37.067,30.389
37.05,30.349
37.039,30.311
37.034,30.277
37.034,30.249
37.04,30.227
37.05,30.215
37.066,30.218
37.085,30.241
37.106,30.289
37.121,30.369
37.131,30.489
37.136,30.656
37.136,30.881
37.133,31.17
37.128,31.532
37.122,31.972
37.114,32.49
37.106,33.085
37.095,33.752
37.082,34.481
37.066,35.262
37.046,36.079
37.02,36.916
36.989,37.758
36.951,38.588
36.908,39.391
36.857,40.15
36.799,40.854
36.735,41.493
36.663,42.06
36.585,42.551
36.501,42.965
36.413,43.304
36.321,43.57
36.226,43.768
36.129,43.904
36.031,43.985
35.931,44.018
35.831,44.011
35.73,43.97
35.629,43.901
35.528,43.811
35.43,43.704
35.333,43.586
35.24,43.458
35.15,43.324
35.062,43.185
34.978,43.042
34.896,42.895
34.818,42.745
34.743,42.592
34.67,42.435
34.6,42.275
34.531,42.111
34.464,41.942
34.398,41.771
34.333,41.596
34.271,41.42
34.21,41.244
34.152,41.068
34.097,40.892
34.045,40.718
33.997,40.545
33.952,40.374
33.908,40.205
33.868,40.04
33.83,39.879
33.794,39.724
33.76,39.574
33.729,39.43
33.699,39.29
33.673,39.154
33.65,39.021
33.631,38.89
33.615,38.761
33.601,38.634
33.591,38.509
33.581,38.385
33.572,38.26
33.563,38.132
33.554,38.002
33.544,37.871
33.533,37.738
33.522,37.606
33.511,37.475
33.499,37.348
33.488,37.228
33.477,37.117
33.465,37.019
33.453,36.936
33.441,36.869
33.428,36.82
33.414,36.789
33.399,36.776
