Trial 1:0back,Trial 6:0back
33.867,35.103
33.855,35.232
33.844,35.376
33.832,35.535
33.822,35.708
33.813,35.894
33.808,36.089
33.807,36.292
33.815,36.5
33.833,36.71
33.865,36.92
33.914,37.126
33.983,37.326
34.076,37.518
34.196,37.699
34.345,37.867
34.525,38.021
34.737,38.16
34.98,38.284
35.251,38.393
35.549,38.487
35.868,38.566
36.204,38.63
36.552,38.68
36.906,38.715
37.26,38.737
37.609,38.748
37.948,38.748
38.271,38.738
38.574,38.719
38.853,38.691
39.105,38.655
39.329,38.611
39.522,38.562
39.685,38.507
39.818,38.449
39.922,38.389
40.001,38.326
40.057,38.261
40.09,38.196
40.105,38.129
40.103,38.062
40.087,37.996
40.059,37.93
40.02,37.865
39.972,37.801
39.913,37.737
39.846,37.677
39.769,37.626
39.683,37.584
39.589,37.549
39.487,37.519
39.379,37.49
39.264,37.458
39.144,37.418
39.017,37.37
38.886,37.312
38.75,37.244
38.609,37.167
38.464,37.083
38.316,36.993
38.164,36.901
38.009,36.808
37.852,36.718
37.693,36.633
37.534,36.554
37.376,36.485
37.219,36.426
37.063,36.379
36.911,36.344
36.763,36.32
36.621,36.307
36.487,36.303
36.363,36.307
36.249,36.318
36.148,36.334
36.06,36.352
35.985,36.372
35.923,36.39
35.874,36.406
35.839,36.42
35.817,36.429
35.807,36.436
35.808,36.438
35.819,36.437
35.84,36.432
35.869,36.423
35.905,36.411
35.949,36.396
35.999,36.38
36.054,36.364
36.113,36.348
36.177,36.33
36.243,36.313
36.311,36.295
36.38,36.275
36.447,36.255
36.512,36.232
36.572,36.207
36.626,36.18
36.674,36.149
36.715,36.115
36.749,36.078
36.775,36.038
36.793,35.995
36.805,35.951
36.811,35.904
36.811,35.854
36.805,35.802
36.795,35.747
36.779,35.689
36.759,35.628
36.733,35.565
36.703,35.5
36.668,35.434
36.627,35.367
36.581,35.299
36.53,35.231
36.473,35.164
36.411,35.098
36.345,35.036
36.276,34.977
36.205,34.922
36.132,34.872
36.059,34.825
35.987,34.78
35.915,34.738
35.845,34.698
35.776,34.66
35.707,34.623
35.64,34.587
35.574,34.551
35.508,34.516
35.442,34.481
35.376,34.444
35.311,34.405
35.247,34.365
35.184,34.325
35.123,34.283
35.064,34.242
35.007,34.2
34.953,34.158
34.901,34.115
34.852,34.071
34.806,34.027
34.764,33.984
34.726,33.944
34.69,33.905
34.657,33.869
34.627,33.835
34.599,33.802
34.573,33.772
34.548,33.746
34.524,33.726
34.5,33.712
34.477,33.707
34.454,33.71
34.432,33.724
34.411,33.749
34.391,33.788
34.373,33.841
34.355,33.911
34.339,33.997
34.323,34.1
34.308,34.22
34.295,34.357
34.283,34.511
34.273,34.68
34.265,34.863
34.258,35.058
34.252,35.261
34.246,35.468
34.241,35.676
34.234,35.881
34.226,36.081
34.216,36.273
34.204,36.455
34.189,36.627
34.172,36.788
34.154,36.936
34.136,37.07
34.116,37.189
34.096,37.292
34.075,37.38
34.052,37.452
34.028,37.51
34.004,37.556
33.98,37.589
33.958,37.612
33.939,37.624
33.924,37.626
33.913,37.62
33.909,37.606
33.912,37.586
33.925,37.559
33.951,37.527
33.991,37.49
34.05,37.447
34.129,37.4
34.231,37.35
34.359,37.297
34.514,37.243
34.698,37.189
34.909,37.133
35.147,37.075
35.41,37.015
35.695,36.953
35.998,36.889
36.314,36.824
36.639,36.758
36.967,36.689
37.293,36.62
37.613,36.549
37.92,36.478
38.213,36.406
38.486,36.333
38.737,36.261
38.964,36.187
39.166,36.113
39.343,36.038
39.495,35.963
39.623,35.888
39.727,35.815
39.81,35.743
39.871,35.674
39.913,35.608
39.936,35.547
39.941,35.49
39.93,35.437
39.904,35.388
39.865,35.343
39.814,35.303
39.753,35.269
39.684,35.244
39.606,35.225
39.523,35.213
39.434,35.206
39.341,35.202
39.244,35.201
39.143,35.202
39.039,35.204
38.931,35.206
38.821,35.208
38.708,35.208
38.592,35.206
38.475,35.202
38.357,35.195
38.239,35.185
38.122,35.169
38.006,35.149
37.891,35.125
37.779,35.095
37.669,35.061
37.56,35.022
37.454,34.98
37.349,34.933
37.244,34.883
37.141,34.829
37.039,34.774
36.94,34.717
36.846,34.659
36.757,34.601
36.675,34.544
36.602,34.49
36.538,34.441
36.484,34.398
36.441,34.363
36.41,34.335
36.39,34.312
36.382,34.294
36.383,34.279
36.395,34.267
36.414,34.258
36.44,34.25
36.471,34.242
36.506,34.234
36.543,34.225
36.581,34.214
36.619,34.202
36.657,34.186
36.694,34.167
36.73,34.144
36.765,34.12
36.798,34.093
36.828,34.064
36.855,34.034
36.879,34.002
36.899,33.969
36.915,33.936
36.927,33.902
36.936,33.869
36.939,33.834
36.938,33.797
36.932,33.757
36.922,33.713
36.906,33.666
36.885,33.617
36.859,33.565
36.828,33.511
36.793,33.456
36.752,33.397
36.706,33.335
36.656,33.271
36.603,33.205
36.546,33.139
36.487,33.075
36.426,33.013
36.363,32.954
36.3,32.898
36.235,32.846
36.17,32.797
36.104,32.753
36.037,32.714
35.97,32.68
35.901,32.653
35.831,32.631
35.761,32.613
35.689,32.6
35.618,32.59
35.547,32.583
35.476,32.577
35.406,32.572
35.339,32.568
35.275,32.563
35.214,32.56
35.158,32.559
35.105,32.561
35.057,32.568
35.012,32.583
34.972,32.607
34.934,32.642
34.899,32.689
34.865,32.75
34.833,32.826
34.802,32.917
34.772,33.023
34.742,33.145
34.711,33.282
34.681,33.433
34.651,33.596
34.621,33.768
34.593,33.945
34.565,34.126
34.54,34.307
34.516,34.487
34.494,34.663
34.475,34.833
34.457,34.995
34.441,35.146
34.426,35.285
34.411,35.409
34.398,35.519
34.386,35.614
34.374,35.694
34.364,35.758
34.356,35.808
34.349,35.845
34.343,35.87
34.337,35.884
34.332,35.889
34.326,35.884
34.32,35.871
34.313,35.852
34.304,35.826
34.294,35.795
34.281,35.759
34.266,35.72
34.247,35.678
34.225,35.635
34.2,35.593
34.171,35.551
34.139,35.512
34.104,35.474
34.068,35.436
34.03,35.399
33.993,35.361
33.955,35.323
33.92,35.285
33.886,35.247
33.856,35.207
33.829,35.166
33.807,35.122
33.79,35.076
33.78,35.027
33.778,34.977
33.786,34.927
33.804,34.879
33.836,34.832
33.884,34.786
33.949,34.74
34.036,34.692
34.146,34.644
34.28,34.599
34.44,34.555
34.628,34.513
34.842,34.472
35.083,34.432
35.349,34.394
35.638,34.357
35.946,34.323
36.269,34.292
36.603,34.267
36.943,34.249
37.283,34.237
37.619,34.234
37.944,34.237
38.255,34.247
38.548,34.264
38.819,34.287
39.066,34.315
39.288,34.347
39.482,34.382
39.65,34.42
39.79,34.459
39.904,34.498
39.99,34.537
40.052,34.573
40.09,34.608
40.108,34.64
40.109,34.669
40.093,34.694
40.064,34.715
40.024,34.73
39.975,34.741
39.918,34.747
39.856,34.748
39.789,34.746
39.718,34.74
39.643,34.731
39.564,34.718
39.481,34.704
39.395,34.687
39.304,34.67
39.211,34.652
39.114,34.636
39.015,34.621
38.913,34.606
38.81,34.592
38.706,34.577
38.603,34.562
38.5,34.544
38.399,34.526
38.299,34.506
38.2,34.483
38.1,34.459
37.998,34.432
37.895,34.404
37.789,34.373
37.68,34.342
37.57,34.31
37.458,34.277
37.347,34.244
37.239,34.21
37.133,34.175
37.032,34.138
36.937,34.101
36.851,34.064
36.773,34.027
36.705,33.992
36.647,33.958
36.599,33.925
36.56,33.894
36.53,33.864
36.509,33.836
36.495,33.808
36.488,33.781
36.485,33.755
36.488,33.729
36.493,33.701
36.502,33.672
36.513,33.64
36.526,33.606
36.541,33.57
36.556,33.533
36.571,33.495
36.585,33.458
36.599,33.422
36.611,33.386
36.621,33.35
36.629,33.316
36.636,33.282
36.64,33.249
36.642,33.214
36.639,33.179
36.633,33.142
36.622,33.105
36.605,33.068
36.583,33.032
36.555,32.996
36.521,32.962
36.481,32.93
36.437,32.9
36.388,32.872
36.336,32.846
36.281,32.823
36.224,32.804
36.163,32.79
36.101,32.781
36.037,32.78
35.972,32.787
35.904,32.802
35.835,32.826
35.765,32.857
35.694,32.897
35.623,32.947
35.551,33.006
35.479,33.075
35.407,33.156
35.337,33.247
35.269,33.348
35.202,33.457
35.138,33.574
35.075,33.698
35.015,33.828
34.957,33.964
34.902,34.104
34.849,34.246
34.799,34.386
34.751,34.524
34.707,34.658
34.664,34.787
34.624,34.911
34.585,35.028
34.547,35.137
34.51,35.238
34.472,35.332
34.434,35.417
34.397,35.493
34.36,35.561
34.324,35.621
34.29,35.673
34.258,35.718
34.229,35.756
34.202,35.786
34.179,35.809
34.159,35.823
34.143,35.83
34.131,35.832
34.121,35.83
34.113,35.824
34.106,35.815
34.1,35.802
34.094,35.787
34.088,35.769
34.081,35.75
34.074,35.729
34.066,35.706
34.058,35.683
34.05,35.657
34.041,35.632
34.034,35.605
34.027,35.578
34.021,35.551
34.015,35.524
34.009,35.496
34.003,35.468
33.996,35.438
33.988,35.406
33.979,35.372
33.969,35.336
33.958,35.297
33.947,35.256
33.934,35.214
33.921,35.17
33.906,35.124
33.891,35.077
33.875,35.027
33.859,34.976
33.842,34.925
33.824,34.876
33.806,34.831
33.787,34.791
33.766,34.756
33.744,34.725
33.722,34.698
33.698,34.677
33.674,34.66
33.648,34.647
33.62,34.64
33.589,34.636
33.556,34.635
33.521,34.637
33.484,34.64
33.446,34.643
33.406,34.647
33.367,34.65
33.329,34.652
33.294,34.652
33.264,34.65
33.24,34.644
33.227,34.634
33.226,34.621
33.243,34.603
33.28,34.581
33.342,34.558
33.43,34.532
33.546,34.505
33.692,34.474
33.867,34.44
34.071,34.403
34.302,34.364
34.558,34.325
34.836,34.288
35.131,34.252
35.441,34.218
35.76,34.186
36.085,34.156
36.411,34.127
36.734,34.1
37.049,34.076
37.353,34.054
37.642,34.032
37.912,34.011
38.162,33.991
38.388,33.969
38.59,33.946
38.765,33.921
38.914,33.895
39.037,33.865
39.133,33.834
39.206,33.801
39.255,33.765
39.283,33.728
39.293,33.69
39.285,33.652
39.264,33.614
39.23,33.579
39.185,33.545
39.131,33.514
39.069,33.484
39,33.457
38.926,33.43
38.847,33.407
38.763,33.388
38.676,33.373
38.586,33.362
38.494,33.354
38.4,33.348
38.306,33.343
38.211,33.337
38.118,33.33
38.025,33.323
37.931,33.315
37.837,33.307
37.742,33.298
37.645,33.287
37.546,33.273
37.446,33.257
37.344,33.239
37.241,33.218
37.136,33.196
37.032,33.173
36.928,33.149
36.826,33.125
36.726,33.101
36.628,33.079
36.533,33.06
36.443,33.044
36.359,33.032
36.281,33.024
36.211,33.021
36.149,33.021
36.096,33.025
36.052,33.032
36.018,33.039
35.994,33.048
35.98,33.056
35.975,33.063
35.98,33.066
35.993,33.067
36.014,33.063
36.041,33.056
36.074,33.046
36.111,33.034
36.151,33.024
36.194,33.017
36.237,33.015
36.281,33.021
36.325,33.035
36.367,33.06
36.406,33.096
36.444,33.144
36.479,33.207
36.511,33.284
36.54,33.375
36.565,33.479
36.584,33.596
36.597,33.722
36.603,33.856
36.601,33.997
36.592,34.142
36.577,34.289
36.558,34.436
36.535,34.582
36.509,34.723
36.48,34.86
36.447,34.99
36.412,35.113
36.374,35.229
36.333,35.337
36.292,35.436
36.249,35.524
36.206,35.602
36.161,35.668
36.116,35.723
36.069,35.768
36.021,35.804
35.972,35.832
35.921,35.854
35.867,35.868
35.811,35.876
35.752,35.878
35.692,35.875
35.629,35.868
35.565,35.858
35.5,35.846
35.434,35.832
35.367,35.817
35.301,35.8
35.234,35.782
35.168,35.763
35.104,35.744
35.041,35.723
34.98,35.7
34.92,35.675
34.862,35.647
34.806,35.616
34.752,35.582
34.701,35.546
34.653,35.507
34.608,35.468
34.566,35.427
34.527,35.384
34.49,35.339
34.455,35.291
34.42,35.24
34.388,35.186
34.357,35.128
34.328,35.067
34.303,35.003
34.282,34.937
34.263,34.869
34.248,34.802
34.235,34.735
34.225,34.671
34.218,34.612
34.213,34.558
34.21,34.511
34.209,34.472
34.21,34.44
34.213,34.414
34.217,34.394
34.223,34.38
34.231,34.373
34.242,34.37
34.254,34.373
34.268,34.38
34.284,34.389
34.302,34.398
34.32,34.409
34.339,34.42
34.357,34.431
34.374,34.442
34.388,34.453
34.399,34.463
34.407,34.471
34.411,34.477
34.41,34.481
34.405,34.483
34.395,34.482
34.38,34.479
34.361,34.474
34.338,34.467
34.311,34.459
34.281,34.45
34.249,34.44
34.214,34.43
34.176,34.42
34.137,34.41
34.097,34.401
34.055,34.391
34.012,34.38
33.969,34.367
33.926,34.352
33.884,34.334
33.841,34.313
33.801,34.291
33.762,34.267
33.727,34.241
33.697,34.213
33.673,34.184
33.659,34.153
33.657,34.122
33.67,34.09
33.702,34.058
33.756,34.027
33.836,33.996
33.945,33.964
34.084,33.932
34.255,33.899
34.456,33.866
34.687,33.833
34.945,33.8
35.227,33.769
35.529,33.737
35.846,33.706
36.173,33.675
36.506,33.643
36.839,33.612
37.168,33.582
37.488,33.551
37.796,33.522
38.089,33.492
38.363,33.463
38.616,33.432
38.847,33.402
39.054,33.37
39.237,33.339
39.396,33.308
39.532,33.279
39.644,33.25
39.735,33.223
39.805,33.196
39.856,33.17
39.889,33.145
39.909,33.12
39.916,33.098
39.911,33.076
39.895,33.056
39.87,33.037
39.835,33.018
39.791,33
39.738,32.983
39.678,32.968
39.612,32.956
39.54,32.946
39.464,32.938
39.386,32.931
39.307,32.923
39.228,32.915
39.149,32.906
39.07,32.894
38.989,32.881
38.908,32.866
38.825,32.849
38.74,32.83
38.654,32.809
38.567,32.787
38.479,32.766
38.392,32.745
38.307,32.726
38.224,32.708
38.143,32.692
38.062,32.677
37.981,32.664
37.898,32.652
37.812,32.641
37.724,32.63
37.634,32.619
37.541,32.607
37.449,32.595
37.358,32.582
37.27,32.567
37.187,32.55
37.112,32.532
37.045,32.513
36.987,32.494
36.941,32.475
36.904,32.458
36.878,32.444
36.861,32.44
36.852,32.448
36.851,32.469
36.857,32.504
36.867,32.552
36.882,32.612
36.899,32.681
36.917,32.757
36.935,32.84
36.953,32.927
36.971,33.019
36.989,33.116
37.006,33.217
37.021,33.324
37.032,33.436
37.039,33.553
37.039,33.676
37.033,33.805
37.021,33.941
37.002,34.081
36.977,34.226
36.945,34.373
36.908,34.522
36.866,34.671
36.819,34.819
36.77,34.963
36.718,35.102
36.664,35.235
36.609,35.362
36.554,35.48
36.498,35.59
36.443,35.689
36.388,35.777
36.332,35.852
36.277,35.913
36.22,35.963
36.161,36.001
36.1,36.03
36.036,36.05
35.97,36.063
35.9,36.069
35.828,36.069
35.755,36.066
35.681,36.059
35.607,36.05
35.534,36.038
35.463,36.026
35.393,36.012
35.324,35.999
35.258,35.985
35.193,35.973
35.131,35.961
35.072,35.951
35.015,35.943
34.96,35.937
34.909,35.933
34.861,35.929
34.815,35.925
34.773,35.921
34.733,35.917
34.696,35.913
34.661,35.91
34.628,35.904
34.596,35.896
34.567,35.885
34.54,35.87
34.515,35.851
34.492,35.828
34.47,35.801
34.45,35.771
34.431,35.738
34.412,35.702
34.393,35.665
34.374,35.628
34.356,35.591
34.338,35.555
34.321,35.521
34.303,35.489
34.285,35.461
34.266,35.437
34.246,35.416
34.225,35.4
34.202,35.388
34.178,35.381
34.154,35.379
34.129,35.38
34.105,35.384
34.081,35.39
34.057,35.395
34.035,35.399
34.013,35.402
33.993,35.404
33.974,35.406
33.956,35.406
33.939,35.405
33.924,35.403
33.908,35.399
33.894,35.393
33.879,35.386
33.864,35.378
33.848,35.367
33.829,35.355
33.807,35.341
33.781,35.323
33.752,35.303
33.718,35.281
33.679,35.256
33.637,35.227
33.59,35.195
33.541,35.16
33.489,35.123
33.438,35.083
33.387,35.04
33.337,34.994
33.289,34.944
33.244,34.89
33.202,34.835
33.164,34.777
33.13,34.719
33.098,34.659
33.071,34.597
33.046,34.536
33.023,34.474
33.002,34.413
32.983,34.354
32.966,34.297
32.953,34.242
32.945,34.188
32.943,34.135
32.951,34.084
32.973,34.033
33.01,33.983
33.068,33.933
33.149,33.883
33.258,33.833
33.396,33.781
33.565,33.727
33.765,33.671
33.997,33.614
34.259,33.556
34.548,33.5
34.862,33.445
35.195,33.393
35.543,33.343
35.9,33.296
36.26,33.253
36.62,33.214
36.973,33.181
37.315,33.154
37.642,33.134
37.95,33.119
38.237,33.107
38.499,33.098
38.736,33.089
38.947,33.079
39.132,33.068
39.291,33.054
39.425,33.04
39.534,33.023
39.62,33.003
39.685,32.981
39.729,32.955
39.756,32.926
39.766,32.896
39.763,32.867
39.747,32.838
39.721,32.812
39.685,32.786
39.639,32.76
39.584,32.734
39.521,32.707
39.454,32.679
39.382,32.651
39.308,32.623
39.234,32.597
39.159,32.573
39.086,32.551
39.014,32.532
38.945,32.517
38.877,32.505
38.81,32.497
38.744,32.493
38.679,32.493
38.614,32.496
38.548,32.502
38.481,32.511
38.412,32.523
38.341,32.537
38.269,32.556
38.195,32.578
38.118,32.602
38.039,32.627
37.956,32.652
37.871,32.676
37.783,32.697
37.693,32.716
37.601,32.731
37.51,32.745
37.418,32.758
37.328,32.771
37.239,32.784
37.152,32.799
37.07,32.816
36.991,32.835
36.918,32.859
36.85,32.889
36.789,32.925
36.734,32.969
36.686,33.021
36.643,33.082
36.606,33.153
36.574,33.236
36.549,33.33
36.529,33.438
36.515,33.558
36.505,33.692
36.499,33.838
36.495,33.995
36.494,34.161
36.493,34.335
36.493,34.515
36.494,34.7
36.494,34.888
36.494,35.075
36.492,35.26
36.489,35.441
36.482,35.615
36.473,35.781
36.459,35.939
36.442,36.088
36.42,36.225
36.393,36.348
36.362,36.457
36.326,36.549
36.286,36.624
36.241,36.682
36.191,36.725
36.139,36.753
36.083,36.767
36.024,36.769
35.963,36.758
35.899,36.737
35.834,36.706
35.766,36.668
35.699,36.625
35.632,36.578
35.566,36.529
35.502,36.479
35.437,36.427
35.372,36.376
35.306,36.325
35.238,36.276
35.167,36.23
35.095,36.186
35.021,36.146
34.946,36.11
34.87,36.078
34.792,36.048
34.715,36.021
34.638,35.996
34.561,35.972
34.487,35.947
34.415,35.922
34.346,35.894
34.281,35.862
34.219,35.825
34.16,35.785
34.105,35.74
34.054,35.693
34.006,35.643
33.961,35.592
33.92,35.541
33.881,35.489
33.844,35.439
33.809,35.391
33.774,35.346
33.739,35.305
33.705,35.269
33.671,35.238
33.638,35.212
33.607,35.191
33.578,35.173
33.551,35.158
33.528,35.146
33.506,35.137
33.487,35.13
33.469,35.126
33.452,35.125
33.433,35.125
33.414,35.128
33.395,35.132
33.377,35.138
33.359,35.146
33.343,35.156
33.327,35.167
33.311,35.178
33.296,35.188
33.281,35.196
33.267,35.203
33.254,35.208
33.241,35.213
33.229,35.216
33.217,35.219
33.205,35.221
33.195,35.222
33.184,35.222
33.175,35.22
33.165,35.216
33.154,35.212
33.143,35.207
33.132,35.2
33.118,35.192
33.103,35.181
33.087,35.168
33.069,35.154
33.05,35.138
33.029,35.12
33.008,35.099
32.985,35.072
32.961,35.039
32.937,34.998
32.912,34.951
32.886,34.898
32.859,34.841
32.832,34.783
32.803,34.724
32.774,34.666
32.744,34.61
32.713,34.554
32.681,34.501
32.647,34.45
32.612,34.403
32.575,34.361
32.537,34.324
32.498,34.291
32.458,34.263
32.417,34.238
32.376,34.216
32.334,34.197
32.292,34.18
32.249,34.166
32.206,34.154
32.163,34.142
32.121,34.132
32.08,34.123
32.041,34.113
32.005,34.103
31.972,34.091
31.944,34.078
31.922,34.063
31.907,34.047
31.902,34.028
31.909,34.009
31.931,33.988
31.97,33.966
32.03,33.943
32.112,33.918
32.22,33.893
32.355,33.866
32.52,33.837
32.716,33.807
32.942,33.775
33.198,33.743
33.482,33.712
33.791,33.683
34.121,33.657
34.467,33.632
34.824,33.608
35.186,33.584
35.546,33.56
35.899,33.537
36.238,33.514
36.56,33.493
36.86,33.472
37.136,33.454
37.386,33.436
37.609,33.42
37.804,33.405
37.972,33.391
38.112,33.379
38.226,33.368
38.315,33.358
38.38,33.349
38.423,33.341
38.446,33.336
38.452,33.332
38.441,33.33
38.417,33.329
38.381,33.328
38.335,33.328
38.281,33.329
38.219,33.329
38.15,33.329
38.077,33.328
38,33.327
37.921,33.325
37.839,33.321
37.756,33.316
37.672,33.309
37.586,33.299
37.5,33.286
37.413,33.269
37.325,33.248
37.237,33.225
37.15,33.201
37.063,33.177
36.977,33.153
36.893,33.129
36.811,33.106
36.729,33.082
36.647,33.058
36.566,33.035
36.483,33.014
36.399,32.995
36.314,32.979
36.226,32.967
36.137,32.959
36.047,32.956
35.958,32.961
35.869,32.975
35.784,32.999
35.702,33.034
35.626,33.081
35.556,33.142
35.494,33.217
35.441,33.305
35.397,33.407
35.361,33.522
35.334,33.649
35.314,33.787
35.3,33.935
35.292,34.091
35.289,34.253
35.293,34.418
35.301,34.585
35.314,34.751
35.329,34.915
35.347,35.076
35.366,35.23
35.385,35.374
35.404,35.507
35.421,35.625
35.436,35.728
35.449,35.817
35.459,35.892
35.468,35.952
35.474,35.998
35.479,36.032
35.481,36.055
35.48,36.068
35.476,36.072
35.468,36.07
35.458,36.061
35.445,36.046
35.429,36.027
35.411,36.003
35.391,35.977
35.368,35.949
35.342,35.92
35.312,35.89
35.281,35.861
35.247,35.833
35.21,35.805
35.171,35.777
35.128,35.748
35.082,35.719
35.031,35.689
34.975,35.659
34.913,35.63
34.847,35.601
34.777,35.574
34.705,35.548
34.633,35.522
34.56,35.496
34.49,35.47
34.422,35.442
34.357,35.414
34.297,35.383
34.242,35.35
34.193,35.314
34.148,35.275
34.107,35.232
34.066,35.188
34.026,35.141
33.984,35.094
33.941,35.047
33.896,35
33.848,34.953
33.798,34.906
33.745,34.862
33.69,34.821
33.634,34.783
33.578,34.752
33.522,34.727
33.467,34.709
33.415,34.698
33.366,34.694
33.322,34.697
33.282,34.708
33.247,34.724
33.217,34.746
33.191,34.771
33.169,34.799
33.151,34.826
33.135,34.851
33.121,34.872
33.107,34.889
33.095,34.902
33.083,34.911
33.071,34.916
33.06,34.92
33.048,34.923
33.036,34.928
33.024,34.934
33.011,34.943
32.998,34.954
32.986,34.967
32.974,34.98
32.962,34.991
32.951,35
32.94,35.004
32.929,35.002
32.918,34.995
32.908,34.983
32.897,34.967
32.886,34.947
32.875,34.924
32.864,34.899
32.851,34.871
32.839,34.842
32.826,34.811
32.814,34.78
32.802,34.747
32.79,34.714
32.779,34.68
32.769,34.644
32.76,34.607
32.75,34.569
32.741,34.53
32.73,34.491
32.717,34.452
32.702,34.414
32.685,34.376
32.664,34.34
32.64,34.304
32.613,34.269
32.585,34.234
32.556,34.201
32.527,34.17
32.499,34.141
32.473,34.113
32.448,34.087
32.424,34.063
32.402,34.039
32.381,34.016
32.362,33.995
32.343,33.975
32.324,33.957
32.305,33.939
32.283,33.92
32.26,33.9
32.235,33.878
32.207,33.853
32.176,33.826
32.141,33.797
32.105,33.766
32.066,33.733
32.027,33.698
31.987,33.663
31.948,33.627
31.909,33.591
31.872,33.556
31.836,33.523
31.804,33.491
31.776,33.461
31.751,33.433
31.732,33.406
31.717,33.38
31.708,33.356
31.705,33.335
31.711,33.316
31.726,33.301
31.753,33.289
31.793,33.279
31.851,33.272
31.93,33.268
32.031,33.266
32.157,33.266
32.31,33.268
32.49,33.272
32.697,33.276
32.928,33.281
33.184,33.285
33.462,33.288
33.761,33.29
34.077,33.291
34.405,33.29
34.74,33.288
35.077,33.285
35.409,33.279
35.733,33.273
36.042,33.265
36.334,33.256
36.604,33.247
36.851,33.237
37.071,33.225
37.265,33.211
37.432,33.194
37.572,33.174
37.687,33.151
37.777,33.124
37.846,33.096
37.895,33.065
37.925,33.035
37.938,33.003
37.935,32.972
37.916,32.941
37.884,32.91
37.84,32.88
37.785,32.851
37.721,32.824
37.649,32.8
37.57,32.777
37.488,32.756
37.403,32.735
37.317,32.717
37.23,32.699
37.146,32.685
37.064,32.675
36.986,32.668
36.91,32.666
36.835,32.669
36.761,32.676
36.687,32.689
36.613,32.707
36.538,32.733
36.461,32.766
36.382,32.809
36.301,32.861
36.217,32.924
36.132,32.998
36.046,33.085
35.959,33.182
35.873,33.292
35.786,33.413
35.702,33.546
35.619,33.689
35.538,33.84
35.461,33.997
35.387,34.157
35.319,34.32
35.256,34.484
35.198,34.647
35.144,34.807
35.095,34.963
35.051,35.112
35.012,35.254
34.977,35.387
34.946,35.511
34.92,35.625
34.899,35.731
34.882,35.826
34.871,35.91
34.866,35.983
34.865,36.043
34.869,36.09
34.877,36.123
34.888,36.144
34.901,36.151
34.916,36.145
34.932,36.127
34.948,36.098
34.963,36.058
34.978,36.01
34.991,35.956
35.003,35.897
35.014,35.837
35.023,35.778
35.031,35.721
35.036,35.666
35.04,35.615
35.042,35.568
35.04,35.525
35.033,35.488
35.022,35.455
35.005,35.426
34.983,35.399
34.955,35.374
34.923,35.349
34.886,35.323
34.846,35.296
34.803,35.267
34.758,35.237
34.714,35.204
34.67,35.169
34.625,35.131
34.58,35.09
34.534,35.045
34.486,34.998
34.435,34.948
34.382,34.897
34.326,34.846
34.268,34.795
34.207,34.745
34.143,34.698
34.079,34.654
34.014,34.617
33.95,34.587
33.887,34.567
33.827,34.563
33.77,34.573
33.717,34.595
33.667,34.626
33.62,34.661
33.576,34.699
33.534,34.736
33.494,34.771
33.454,34.801
33.416,34.825
33.379,34.843
33.342,34.856
33.306,34.862
33.272,34.865
33.239,34.863
33.208,34.859
33.179,34.853
33.151,34.845
33.126,34.837
33.101,34.828
33.079,34.82
33.057,34.812
33.037,34.804
33.019,34.796
33.002,34.788
32.987,34.779
32.972,34.769
32.958,34.756
32.945,34.741
32.932,34.725
32.919,34.708
32.904,34.692
32.888,34.677
32.87,34.661
32.851,34.643
32.832,34.625
32.814,34.605
32.797,34.585
32.784,34.564
32.774,34.543
32.769,34.522
32.766,34.502
32.766,34.482
32.766,34.463
32.765,34.445
32.764,34.429
32.761,34.413
32.757,34.397
32.752,34.379
32.745,34.36
32.735,34.339
32.724,34.317
32.71,34.292
32.695,34.266
32.678,34.238
32.661,34.209
32.643,34.179
32.626,34.148
32.611,34.115
32.596,34.081
32.584,34.047
32.571,34.012
32.559,33.978
32.547,33.946
32.533,33.914
32.517,33.884
32.498,33.853
32.477,33.821
32.454,33.79
32.428,33.76
32.4,33.733
32.37,33.709
32.34,33.689
32.309,33.671
32.278,33.655
32.246,33.642
32.214,33.63
32.183,33.62
32.151,33.611
32.12,33.603
32.09,33.595
32.061,33.587
32.034,33.578
32.008,33.568
31.983,33.556
31.957,33.543
31.932,33.528
31.905,33.511
31.878,33.493
31.85,33.476
31.821,33.46
31.793,33.446
31.766,33.434
31.741,33.423
31.72,33.415
31.705,33.408
31.698,33.403
31.701,33.399
31.717,33.394
31.748,33.388
31.796,33.382
31.863,33.375
31.953,33.37
32.065,33.366
32.202,33.364
32.364,33.362
32.551,33.36
32.763,33.357
32.999,33.353
33.255,33.348
33.528,33.344
33.816,33.34
34.114,33.336
34.417,33.331
34.72,33.323
35.02,33.312
35.312,33.298
35.593,33.28
35.857,33.26
36.104,33.237
36.33,33.211
36.536,33.184
36.719,33.155
36.88,33.126
37.018,33.096
37.133,33.068
37.226,33.042
37.299,33.018
37.352,32.998
37.387,32.979
37.406,32.964
37.41,32.95
37.402,32.939
37.384,32.93
37.358,32.925
37.323,32.924
37.282,32.928
37.236,32.936
37.184,32.95
37.129,32.968
37.07,32.992
37.008,33.023
36.944,33.064
36.88,33.114
36.814,33.176
36.749,33.249
36.683,33.332
36.619,33.427
36.555,33.531
36.492,33.645
36.43,33.767
36.368,33.895
36.307,34.029
36.246,34.166
36.185,34.305
36.125,34.445
36.065,34.585
36.004,34.724
35.942,34.86
35.879,34.992
35.815,35.119
35.75,35.241
35.684,35.355
35.617,35.461
35.55,35.56
35.483,35.65
35.417,35.733
35.353,35.807
35.293,35.873
35.236,35.93
35.184,35.977
35.138,36.015
35.097,36.043
35.064,36.061
35.036,36.071
35.016,36.073
35.001,36.068
34.994,36.055
34.992,36.037
34.997,36.013
35.008,35.983
35.025,35.949
35.047,35.911
35.074,35.87
35.104,35.828
35.137,35.785
35.171,35.739
35.205,35.692
35.238,35.644
35.269,35.596
35.297,35.549
35.321,35.503
35.342,35.459
35.361,35.416
35.377,35.373
35.39,35.331
35.401,35.289
35.408,35.248
35.411,35.206
35.408,35.165
35.398,35.124
35.381,35.082
35.359,35.038
35.332,34.993
35.301,34.945
35.268,34.896
35.233,34.845
35.197,34.794
35.16,34.742
35.122,34.691
35.083,34.643
35.044,34.597
35.005,34.557
34.965,34.524
34.927,34.5
34.89,34.485
34.855,34.479
34.822,34.482
34.791,34.494
34.759,34.512
34.727,34.537
34.694,34.567
34.661,34.6
34.628,34.636
34.594,34.672
34.559,34.709
34.522,34.745
34.483,34.782
34.442,34.816
34.4,34.848
34.359,34.878
34.321,34.904
34.284,34.926
34.249,34.942
34.216,34.952
34.183,34.955
34.15,34.953
34.118,34.946
34.084,34.935
34.051,34.92
34.018,34.903
33.987,34.883
33.958,34.862
33.931,34.84
33.908,34.818
33.889,34.798
33.874,34.78
33.864,34.765
33.858,34.753
33.857,34.744
33.859,34.736
33.864,34.73
33.87,34.724
33.877,34.718
33.885,34.711
33.892,34.703
33.899,34.691
33.905,34.677
33.91,34.66
33.914,34.639
33.919,34.616
33.924,34.591
33.93,34.564
33.936,34.536
33.942,34.507
33.949,34.476
33.955,34.443
33.959,34.407
33.962,34.369
33.962,34.33
33.96,34.29
33.955,34.249
33.948,34.207
33.939,34.165
33.927,34.123
33.913,34.083
33.896,34.045
33.878,34.012
33.859,33.985
33.838,33.963
33.817,33.946
33.795,33.934
33.773,33.925
33.751,33.919
33.729,33.916
33.708,33.914
33.686,33.912
33.664,33.91
33.643,33.906
33.622,33.9
33.602,33.892
33.581,33.88
33.562,33.867
33.542,33.852
33.523,33.836
33.503,33.82
33.482,33.804
33.461,33.787
33.438,33.769
33.414,33.75
33.389,33.73
33.362,33.709
33.334,33.687
33.306,33.666
33.276,33.644
33.246,33.622
33.216,33.602
33.186,33.582
33.157,33.564
33.127,33.55
33.098,33.539
33.068,33.532
33.037,33.528
33.004,33.526
32.97,33.527
32.935,33.529
32.898,33.533
32.859,33.537
32.819,33.541
32.778,33.545
32.736,33.548
32.694,33.552
32.654,33.555
32.616,33.558
32.581,33.561
32.551,33.565
32.527,33.569
32.512,33.572
32.507,33.576
32.515,33.578
32.538,33.579
32.578,33.577
32.638,33.574
32.719,33.568
32.823,33.563
32.951,33.556
33.104,33.549
33.281,33.541
33.481,33.531
33.701,33.521
33.941,33.512
34.195,33.506
34.462,33.503
34.737,33.506
35.016,33.514
35.296,33.528
35.572,33.55
35.841,33.58
36.1,33.618
36.347,33.665
36.578,33.72
36.791,33.782
36.985,33.845
37.157,33.909
37.308,33.975
37.437,34.046
37.544,34.124
37.631,34.213
37.699,34.314
37.749,34.427
37.783,34.552
37.801,34.688
37.805,34.831
37.795,34.98
37.773,35.132
37.74,35.283
37.697,35.433
37.646,35.578
37.587,35.715
37.523,35.839
37.453,35.95
37.379,36.046
37.302,36.126
37.222,36.192
37.141,36.244
37.059,36.282
36.979,36.309
36.9,36.325
36.823,36.333
36.748,36.332
36.676,36.326
36.606,36.315
36.54,36.3
36.477,36.282
36.419,36.261
36.365,36.236
36.316,36.208
36.269,36.176
36.222,36.141
36.174,36.103
36.123,36.061
36.067,36.017
36.007,35.968
35.941,35.914
35.87,35.856
35.794,35.794
35.717,35.73
35.638,35.665
35.56,35.6
35.484,35.535
35.413,35.473
35.347,35.412
35.289,35.355
35.238,35.3
35.195,35.249
35.161,35.201
35.134,35.156
35.115,35.115
35.103,35.077
35.096,35.043
35.093,35.012
35.096,34.984
35.102,34.957
35.112,34.931
35.126,34.907
35.144,34.884
35.166,34.863
35.192,34.843
35.219,34.827
35.247,34.815
35.274,34.809
35.3,34.809
35.322,34.815
35.341,34.826
35.355,34.842
35.364,34.862
35.368,34.884
35.367,34.909
35.361,34.938
35.352,34.969
35.341,35.004
35.327,35.042
35.311,35.084
35.293,35.13
35.273,35.178
35.248,35.228
35.221,35.278
35.189,35.329
35.155,35.377
35.117,35.424
35.076,35.467
35.033,35.506
34.988,35.539
34.941,35.567
34.892,35.588
34.842,35.604
34.791,35.614
34.739,35.617
34.686,35.613
34.631,35.603
34.575,35.588
34.518,35.569
34.461,35.549
34.404,35.528
34.347,35.507
34.289,35.484
34.232,35.46
34.174,35.436
34.117,35.411
34.059,35.385
34.002,35.358
33.945,35.331
33.889,35.304
33.836,35.277
33.785,35.25
33.736,35.221
33.692,35.191
33.65,35.159
33.612,35.125
33.578,35.09
33.549,35.054
33.525,35.017
33.503,34.981
33.483,34.945
33.463,34.91
33.442,34.877
33.419,34.848
33.395,34.821
33.371,34.796
33.346,34.773
33.32,34.75
33.294,34.727
33.267,34.704
33.24,34.681
33.214,34.659
33.189,34.639
33.166,34.619
33.145,34.601
33.126,34.583
33.107,34.567
33.09,34.553
33.073,34.54
33.055,34.528
33.038,34.518
33.021,34.509
33.005,34.5
32.992,34.492
32.979,34.484
32.968,34.476
32.957,34.469
32.945,34.463
32.934,34.457
32.924,34.45
32.915,34.441
32.909,34.429
32.905,34.415
32.904,34.397
32.904,34.377
32.904,34.354
32.904,34.33
32.903,34.305
32.901,34.277
32.896,34.248
32.887,34.218
32.875,34.188
32.861,34.16
32.843,34.135
32.825,34.114
32.807,34.098
32.79,34.086
32.773,34.079
32.757,34.075
32.741,34.074
32.725,34.075
32.708,34.077
32.689,34.08
32.668,34.083
32.643,34.085
32.615,34.088
32.586,34.091
32.556,34.096
32.525,34.104
32.494,34.115
32.465,34.132
32.436,34.156
32.408,34.187
32.381,34.227
32.356,34.276
32.331,34.336
32.306,34.408
32.28,34.493
32.254,34.591
32.227,34.701
32.198,34.822
32.167,34.953
32.133,35.093
32.097,35.24
32.061,35.394
32.025,35.554
31.991,35.72
31.958,35.89
31.928,36.063
31.901,36.235
31.876,36.405
31.855,36.571
31.841,36.731
31.832,36.882
31.831,37.022
31.837,37.149
31.85,37.261
31.874,37.357
31.909,37.436
31.957,37.499
32.021,37.548
32.102,37.582
32.203,37.603
32.326,37.614
32.471,37.615
32.639,37.609
32.83,37.598
33.042,37.584
33.272,37.568
33.517,37.55
33.775,37.53
34.042,37.505
34.314,37.469
34.586,37.419
34.854,37.355
35.116,37.28
35.368,37.198
35.606,37.112
35.828,37.026
36.033,36.942
36.219,36.861
36.387,36.786
36.535,36.717
36.664,36.654
36.774,36.596
36.866,36.543
36.939,36.492
36.995,36.444
37.034,36.397
37.059,36.351
37.069,36.305
37.068,36.26
37.055,36.216
37.032,36.172
37,36.128
36.96,36.085
36.913,36.042
36.86,36.002
36.801,35.965
36.739,35.933
36.674,35.906
36.607,35.883
36.539,35.865
36.47,35.851
36.403,35.841
36.337,35.834
36.273,35.831
36.211,35.831
36.15,35.834
36.091,35.841
36.032,35.849
35.973,35.86
35.914,35.873
35.854,35.887
35.794,35.904
35.733,35.924
35.672,35.946
35.611,35.97
35.549,35.997
35.486,36.025
35.42,36.054
35.352,36.083
35.281,36.113
35.21,36.144
35.137,36.174
35.065,36.202
34.993,36.228
34.924,36.25
34.86,36.267
34.803,36.28
34.753,36.289
34.714,36.294
34.683,36.295
34.662,36.292
34.651,36.285
34.649,36.276
34.658,36.263
34.676,36.248
34.702,36.231
34.734,36.211
34.771,36.19
34.812,36.167
34.854,36.142
34.895,36.115
34.935,36.085
34.973,36.052
35.008,36.017
35.04,35.98
35.068,35.942
35.092,35.902
35.113,35.86
35.132,35.815
35.149,35.769
35.164,35.722
35.176,35.675
35.186,35.627
35.193,35.581
35.195,35.534
35.194,35.487
35.187,35.44
35.175,35.393
35.158,35.345
35.135,35.298
35.107,35.25
35.075,35.201
35.038,35.151
34.999,35.1
34.958,35.049
34.916,34.999
34.872,34.949
34.829,34.901
34.785,34.856
34.741,34.814
34.698,34.774
34.655,34.736
34.612,34.7
34.569,34.665
34.525,34.63
34.481,34.597
34.435,34.566
34.389,34.536
34.343,34.507
34.295,34.479
34.247,34.452
34.199,34.427
34.151,34.405
34.103,34.385
34.055,34.368
34.008,34.355
33.961,34.344
33.913,34.335
33.866,34.327
33.821,34.321
33.777,34.316
33.735,34.312
33.695,34.307
33.659,34.302
33.625,34.296
33.595,34.287
33.569,34.276
33.548,34.262
33.529,34.245
33.515,34.227
33.503,34.207
33.494,34.185
33.487,34.162
33.481,34.136
33.474,34.108
33.466,34.078
33.458,34.048
33.448,34.021
33.438,33.997
33.427,33.977
33.415,33.96
33.403,33.948
33.392,33.939
33.382,33.935
33.375,33.937
33.369,33.946
33.367,33.963
33.368,33.989
33.371,34.026
33.377,34.074
33.384,34.137
33.39,34.214
33.394,34.306
33.397,34.415
33.397,34.538
33.396,34.677
33.393,34.829
33.389,34.993
33.384,35.168
33.376,35.352
33.368,35.542
33.357,35.738
33.345,35.937
33.331,36.135
33.316,36.331
33.3,36.52
33.285,36.702
33.268,36.875
33.251,37.039
33.233,37.195
33.213,37.342
33.193,37.48
33.173,37.609
33.152,37.729
33.131,37.84
33.11,37.94
33.09,38.031
33.069,38.112
33.048,38.183
33.027,38.244
33.006,38.294
32.985,38.333
32.964,38.361
32.942,38.38
32.919,38.39
32.896,38.392
32.871,38.385
32.846,38.37
32.819,38.347
32.791,38.315
32.761,38.275
32.729,38.23
32.696,38.181
32.661,38.129
32.625,38.076
32.588,38.021
32.551,37.967
32.514,37.914
32.479,37.862
32.444,37.811
32.411,37.76
32.381,37.71
32.354,37.661
32.332,37.611
32.318,37.56
32.311,37.508
32.313,37.455
32.326,37.402
32.351,37.35
32.389,37.299
32.444,37.247
32.515,37.195
32.605,37.143
32.715,37.091
32.844,37.039
32.993,36.989
33.163,36.941
33.352,36.895
33.558,36.852
33.78,36.811
34.016,36.774
34.262,36.74
34.515,36.709
34.771,36.681
35.025,36.655
35.274,36.633
35.514,36.614
35.743,36.598
35.956,36.584
36.153,36.573
36.333,36.565
36.495,36.56
36.639,36.56
36.765,36.563
36.874,36.568
36.964,36.574
37.037,36.58
37.092,36.585
37.133,36.59
37.158,36.593
37.17,36.596
37.168,36.6
37.153,36.605
37.127,36.611
37.092,36.619
37.047,36.628
36.996,36.639
36.94,36.65
36.879,36.66
36.815,36.669
36.749,36.675
36.68,36.676
36.611,36.672
36.541,36.663
36.471,36.648
36.401,36.629
36.33,36.604
36.261,36.573
36.191,36.535
36.121,36.491
36.052,36.443
35.984,36.391
35.916,36.338
35.849,36.286
35.781,36.235
35.713,36.186
35.645,36.139
35.577,36.092
35.508,36.047
35.439,36.002
35.371,35.958
35.305,35.915
35.24,35.872
35.178,35.83
35.119,35.788
35.063,35.746
35.012,35.705
34.964,35.664
34.921,35.623
34.883,35.583
34.849,35.542
34.821,35.5
34.799,35.457
34.782,35.413
34.77,35.367
34.765,35.32
34.766,35.273
34.772,35.227
34.784,35.18
34.801,35.134
34.822,35.089
34.847,35.044
34.874,35.001
34.904,34.962
34.936,34.925
34.968,34.892
35.001,34.864
35.033,34.838
35.065,34.816
35.096,34.797
35.126,34.781
35.155,34.767
35.183,34.756
35.209,34.747
35.232,34.738
35.253,34.729
35.269,34.719
35.281,34.707
35.287,34.695
35.287,34.681
35.28,34.666
35.267,34.65
35.247,34.632
35.222,34.612
35.191,34.592
35.156,34.571
35.118,34.551
35.078,34.533
35.035,34.515
34.99,34.499
34.944,34.483
34.896,34.468
34.847,34.451
34.797,34.432
34.745,34.412
34.692,34.39
34.639,34.368
34.584,34.345
34.528,34.321
34.471,34.299
34.413,34.278
34.355,34.259
34.297,34.243
34.238,34.23
34.18,34.219
34.121,34.212
34.064,34.207
34.007,34.204
33.953,34.202
33.9,34.202
33.85,34.205
33.802,34.212
33.755,34.225
33.71,34.249
33.665,34.285
33.621,34.334
33.578,34.395
33.535,34.47
33.493,34.557
33.452,34.655
33.412,34.763
33.374,34.88
33.337,35.006
33.302,35.141
33.269,35.285
33.238,35.439
33.209,35.602
33.181,35.775
33.154,35.957
33.128,36.147
33.103,36.342
33.078,36.539
33.053,36.738
33.029,36.934
33.006,37.126
32.986,37.312
32.967,37.489
32.952,37.655
32.94,37.809
32.931,37.95
32.924,38.076
32.921,38.187
32.919,38.282
32.918,38.362
32.918,38.427
32.918,38.477
32.918,38.513
32.918,38.536
32.917,38.545
32.916,38.543
32.914,38.532
32.913,38.513
32.912,38.488
32.911,38.457
32.91,38.423
32.909,38.385
32.908,38.345
32.906,38.303
32.904,38.262
32.901,38.22
32.897,38.179
32.893,38.139
32.888,38.098
32.883,38.058
32.878,38.017
32.873,37.977
32.868,37.937
32.863,37.896
32.858,37.856
32.853,37.814
32.848,37.77
32.843,37.724
32.838,37.675
32.834,37.625
32.829,37.572
32.824,37.518
32.819,37.464
32.814,37.408
32.808,37.352
32.801,37.296
32.792,37.242
32.782,37.19
32.77,37.141
32.756,37.096
32.741,37.055
32.724,37.017
32.705,36.984
32.684,36.953
32.662,36.925
32.639,36.901
32.616,36.88
32.594,36.861
32.574,36.844
32.554,36.83
32.537,36.818
32.523,36.808
32.511,36.8
32.503,36.795
32.498,36.792
32.498,36.794
32.505,36.8
32.521,36.809
32.548,36.821
32.588,36.833
32.645,36.847
32.719,36.86
32.814,36.873
32.932,36.884
33.072,36.893
33.237,36.899
33.426,36.903
33.638,36.903
33.871,36.9
34.123,36.893
34.389,36.883
34.667,36.869
34.952,36.852
35.239,36.829
35.526,36.802
35.807,36.771
36.079,36.737
36.338,36.701
36.582,36.664
36.809,36.626
37.017,36.586
37.204,36.546
37.369,36.505
37.513,36.463
37.635,36.421
37.736,36.378
37.818,36.334
37.881,36.289
37.926,36.244
37.955,36.197
37.969,36.15
37.969,36.102
37.957,36.054
37.934,36.005
37.902,35.955
37.863,35.905
37.817,35.853
37.765,35.801
37.707,35.749
37.646,35.696
37.58,35.644
37.512,35.593
37.442,35.544
37.371,35.496
37.297,35.449
37.223,35.403
37.149,35.358
37.074,35.314
36.999,35.273
36.926,35.233
36.853,35.196
36.783,35.161
36.714,35.127
36.646,35.095
36.579,35.066
36.512,35.038
36.446,35.011
36.38,34.985
36.314,34.959
36.248,34.934
36.183,34.909
36.117,34.884
36.051,34.858
35.985,34.832
35.92,34.806
35.857,34.778
35.796,34.75
35.738,34.721
35.684,34.691
35.634,34.659
35.589,34.626
35.55,34.595
35.517,34.566
35.491,34.541
35.471,34.519
35.458,34.499
35.454,34.48
35.456,34.462
35.465,34.445
35.479,34.43
35.497,34.417
35.519,34.404
35.544,34.391
35.57,34.378
35.597,34.365
35.624,34.351
35.651,34.335
35.677,34.318
35.701,34.298
35.722,34.275
35.74,34.25
35.755,34.222
35.767,34.191
35.776,34.158
35.783,34.122
35.787,34.084
35.788,34.045
35.786,34.005
35.78,33.965
35.771,33.926
35.757,33.887
35.74,33.849
35.718,33.813
35.691,33.782
35.661,33.756
35.626,33.738
35.588,33.729
35.547,33.728
35.503,33.736
35.458,33.753
35.41,33.781
35.36,33.822
35.308,33.876
35.254,33.944
35.197,34.028
35.137,34.127
35.075,34.243
35.011,34.375
34.944,34.521
34.876,34.683
34.808,34.857
34.739,35.043
34.673,35.237
34.609,35.438
34.549,35.641
34.492,35.843
34.439,36.041
34.389,36.233
34.342,36.417
34.296,36.59
34.251,36.752
34.208,36.899
34.165,37.031
34.122,37.146
34.079,37.247
34.036,37.333
33.993,37.406
33.951,37.467
33.911,37.517
33.874,37.556
33.839,37.587
33.806,37.61
33.777,37.626
33.749,37.635
33.724,37.637
33.701,37.632
33.679,37.62
33.659,37.601
33.641,37.575
33.624,37.542
33.608,37.502
33.594,37.457
33.58,37.408
33.568,37.357
33.557,37.305
33.547,37.253
33.538,37.2
33.53,37.148
33.523,37.097
33.517,37.047
33.511,36.996
33.504,36.944
33.497,36.891
33.488,36.834
33.478,36.774
33.467,36.711
33.454,36.645
33.442,36.576
33.429,36.505
33.417,36.432
33.408,36.357
33.4,36.283
33.394,36.208
33.39,36.135
33.387,36.064
33.385,35.995
33.384,35.93
33.383,35.87
33.382,35.815
33.381,35.765
33.378,35.72
33.373,35.682
33.365,35.651
33.353,35.629
33.338,35.615
33.32,35.608
33.298,35.607
33.275,35.612
33.249,35.621
33.223,35.633
33.197,35.647
33.172,35.663
33.147,35.68
33.123,35.695
33.1,35.71
33.078,35.725
33.056,35.738
33.035,35.751
33.014,35.762
32.991,35.772
32.966,35.782
32.94,35.789
32.912,35.794
32.882,35.796
32.849,35.794
32.816,35.79
32.782,35.783
32.75,35.774
32.723,35.763
32.703,35.75
32.693,35.735
32.695,35.717
32.711,35.697
32.742,35.675
32.794,35.653
32.867,35.63
32.965,35.607
33.088,35.584
33.237,35.561
33.412,35.539
33.612,35.518
33.835,35.497
34.079,35.475
34.341,35.454
34.616,35.431
34.9,35.405
35.189,35.376
35.479,35.344
35.766,35.307
36.046,35.267
36.315,35.224
36.57,35.178
36.808,35.131
37.027,35.082
37.227,35.033
37.407,34.982
37.565,34.931
37.703,34.882
37.82,34.835
37.918,34.791
37.997,34.749
38.059,34.709
38.105,34.672
38.136,34.636
38.155,34.601
38.163,34.567
38.162,34.536
38.152,34.508
38.135,34.483
38.11,34.46
38.079,34.439
38.042,34.42
37.999,34.403
37.951,34.388
37.898,34.374
37.841,34.363
37.779,34.353
37.715,34.343
37.648,34.332
37.58,34.321
37.512,34.308
37.444,34.294
37.378,34.278
37.314,34.262
37.253,34.245
37.192,34.229
37.133,34.212
37.075,34.194
37.016,34.174
36.957,34.153
36.898,34.127
36.839,34.098
36.778,34.067
36.717,34.034
36.653,34.002
36.589,33.971
36.522,33.945
36.454,33.925
36.385,33.912
36.317,33.906
36.25,33.909
36.185,33.917
36.125,33.931
36.069,33.949
36.019,33.97
35.975,33.993
35.937,34.016
35.905,34.037
35.88,34.054
35.86,34.066
35.845,34.071
35.836,34.069
35.832,34.059
35.832,34.043
35.837,34.02
35.846,33.992
35.859,33.96
35.877,33.925
35.899,33.888
35.923,33.849
35.95,33.811
35.978,33.773
36.006,33.738
36.033,33.706
36.059,33.678
36.083,33.653
36.105,33.631
36.125,33.613
36.142,33.6
36.158,33.592
36.171,33.589
36.181,33.593
36.189,33.604
36.193,33.624
36.193,33.653
36.187,33.692
36.176,33.744
36.158,33.808
36.133,33.887
36.1,33.979
36.06,34.084
36.015,34.201
35.966,34.328
35.913,34.463
35.858,34.606
35.803,34.754
35.748,34.906
35.693,35.062
35.64,35.221
35.588,35.384
35.538,35.55
35.489,35.719
35.442,35.891
35.395,36.067
35.349,36.245
35.302,36.424
35.254,36.601
35.205,36.775
35.154,36.941
35.101,37.098
35.048,37.242
34.995,37.373
34.943,37.487
34.891,37.585
34.841,37.665
34.793,37.727
34.746,37.77
34.7,37.797
34.657,37.808
34.615,37.806
34.575,37.792
34.536,37.769
34.498,37.739
34.461,37.702
34.424,37.662
34.388,37.619
34.352,37.575
34.317,37.532
34.283,37.49
34.251,37.449
34.222,37.409
34.197,37.369
34.176,37.328
34.159,37.287
34.145,37.244
34.133,37.198
34.123,37.15
34.114,37.097
34.105,37.039
34.096,36.976
34.087,36.908
34.077,36.836
34.066,36.761
34.055,36.684
34.043,36.605
34.032,36.526
34.021,36.448
34.011,36.373
34.002,36.302
33.994,36.236
33.986,36.177
33.979,36.124
33.971,36.078
33.963,36.04
33.953,36.008
33.942,35.982
33.93,35.962
33.917,35.947
33.902,35.938
33.886,35.936
33.87,35.939
33.853,35.948
33.836,35.96
33.817,35.977
33.797,35.996
33.776,36.018
33.754,36.043
33.73,36.069
33.704,36.096
33.677,36.124
33.649,36.153
33.62,36.182
33.59,36.211
33.559,36.24
33.528,36.268
33.497,36.295
33.465,36.319
33.432,36.34
33.399,36.355
33.366,36.365
33.333,36.369
33.3,36.367
33.268,36.36
33.24,36.349
33.215,36.333
33.193,36.312
33.174,36.286
33.161,36.255
33.152,36.219
33.15,36.18
33.157,36.137
33.176,36.091
33.209,36.042
33.258,35.992
33.325,35.941
33.413,35.889
33.521,35.839
33.651,35.789
33.803,35.742
33.977,35.696
34.172,35.654
34.385,35.613
34.614,35.574
34.856,35.536
35.108,35.499
35.366,35.462
35.626,35.426
35.885,35.39
36.14,35.353
36.388,35.313
36.626,35.272
36.851,35.228
37.062,35.184
37.257,35.14
37.434,35.096
37.592,35.054
37.732,35.014
37.854,34.975
37.959,34.94
38.047,34.907
38.119,34.878
38.175,34.852
38.217,34.828
38.245,34.806
38.261,34.786
38.265,34.769
38.258,34.752
38.242,34.736
38.216,34.721
38.183,34.704
38.143,34.686
38.096,34.666
38.043,34.642
37.985,34.615
37.923,34.587
37.859,34.558
37.793,34.53
37.725,34.505
37.657,34.482
37.589,34.463
37.518,34.446
37.447,34.43
37.373,34.414
37.298,34.398
37.221,34.382
37.142,34.366
37.061,34.35
36.978,34.334
36.894,34.318
36.808,34.303
36.72,34.29
36.63,34.277
36.54,34.265
36.449,34.255
36.359,34.245
36.271,34.237
36.186,34.23
36.105,34.223
36.028,34.217
35.958,34.211
35.893,34.205
35.835,34.199
35.785,34.193
35.743,34.187
35.71,34.18
35.686,34.17
35.67,34.157
35.662,34.143
35.662,34.128
35.668,34.113
35.68,34.098
35.697,34.082
35.719,34.064
35.746,34.044
35.776,34.022
35.809,33.998
35.845,33.972
35.882,33.946
35.919,33.919
35.957,33.892
35.994,33.863
36.03,33.836
36.065,33.809
36.097,33.784
36.128,33.761
36.157,33.742
36.183,33.728
36.207,33.719
36.229,33.715
36.248,33.716
36.264,33.724
36.277,33.739
36.287,33.762
36.293,33.793
36.294,33.834
36.289,33.886
36.278,33.949
36.26,34.025
36.237,34.115
36.208,34.22
36.176,34.341
36.14,34.481
36.102,34.638
36.061,34.812
36.019,35
35.975,35.201
35.93,35.412
35.884,35.63
35.839,35.854
35.794,36.08
35.751,36.304
35.709,36.523
35.668,36.733
35.628,36.932
35.589,37.119
35.551,37.293
35.512,37.451
35.474,37.594
35.434,37.722
35.394,37.834
35.353,37.928
35.313,38.006
35.276,38.069
35.242,38.117
35.213,38.152
35.186,38.177
35.16,38.193
35.134,38.201
35.106,38.201
35.075,38.193
35.041,38.179
35.004,38.159
34.962,38.133
34.918,38.101
34.87,38.065
34.821,38.024
34.771,37.978
34.721,37.927
34.671,37.872
34.622,37.814
34.574,37.754
34.529,37.692
34.486,37.628
34.446,37.564
34.409,37.5
34.374,37.436
34.34,37.372
34.309,37.311
34.279,37.252
34.252,37.196
34.227,37.141
34.204,37.087
34.183,37.034
34.162,36.981
34.143,36.928
34.124,36.875
34.107,36.823
34.091,36.771
34.077,36.721
34.066,36.673
34.056,36.628
34.048,36.585
34.043,36.547
34.04,36.513
34.039,36.485
34.039,36.462
34.041,36.446
34.045,36.435
34.048,36.429
34.049,36.428
34.047,36.433
34.039,36.444
34.026,36.459
34.008,36.478
33.985,36.5
33.96,36.522
33.932,36.543
33.903,36.563
33.874,36.58
33.845,36.594
33.817,36.604
33.79,36.612
33.762,36.616
33.735,36.616
33.709,36.613
33.683,36.608
33.658,36.601
33.633,36.594
33.608,36.587
33.582,36.58
33.558,36.573
33.535,36.566
33.516,36.559
33.502,36.551
33.495,36.542
33.497,36.532
33.511,36.52
33.538,36.506
33.584,36.489
33.649,36.469
33.738,36.446
33.852,36.422
33.992,36.397
34.158,36.369
34.349,36.34
34.564,36.309
34.801,36.275
35.057,36.239
35.327,36.2
35.609,36.161
35.898,36.12
36.19,36.078
36.481,36.036
36.768,35.992
37.047,35.947
37.316,35.901
37.571,35.854
37.809,35.806
38.028,35.758
38.228,35.71
38.408,35.661
38.569,35.613
38.711,35.564
38.834,35.517
38.939,35.47
39.026,35.424
39.094,35.379
39.143,35.335
39.175,35.293
39.19,35.25
39.19,35.207
39.177,35.164
39.152,35.119
39.118,35.074
39.077,35.028
39.03,34.982
38.98,34.936
38.928,34.889
38.874,34.843
38.819,34.798
38.762,34.753
38.703,34.712
38.641,34.673
38.577,34.639
38.513,34.608
38.449,34.581
38.384,34.558
38.32,34.538
38.255,34.522
38.191,34.51
38.128,34.501
38.066,34.495
38.004,34.492
37.944,34.49
37.886,34.488
37.828,34.486
37.771,34.483
37.714,34.479
37.656,34.475
37.597,34.47
37.536,34.462
37.472,34.452
37.405,34.438
37.337,34.422
37.267,34.402
37.196,34.379
37.127,34.353
37.06,34.323
36.996,34.291
36.936,34.256
36.881,34.218
36.831,34.179
36.787,34.139
36.75,34.1
36.719,34.063
36.693,34.029
36.675,33.995
36.662,33.964
36.654,33.934
36.652,33.906
36.655,33.878
36.661,33.85
36.671,33.822
36.682,33.794
36.696,33.765
36.711,33.735
36.728,33.704
36.745,33.672
36.764,33.639
36.782,33.607
36.8,33.575
36.816,33.546
36.829,33.519
36.84,33.495
36.847,33.473
36.85,33.454
36.849,33.439
36.843,33.43
36.832,33.428
36.816,33.433
36.794,33.448
36.765,33.473
36.732,33.509
36.692,33.558
36.648,33.62
36.6,33.698
36.548,33.792
36.494,33.904
36.437,34.032
36.378,34.177
36.317,34.339
36.255,34.517
36.192,34.708
36.128,34.912
36.064,35.127
36,35.351
35.936,35.582
35.872,35.817
35.808,36.055
35.745,36.291
35.681,36.523
35.617,36.75
35.554,36.969
35.49,37.18
35.426,37.38
35.362,37.566
35.298,37.738
35.234,37.894
35.171,38.033
35.109,38.154
35.048,38.258
34.989,38.345
34.933,38.416
34.879,38.472
34.829,38.515
34.783,38.546
34.739,38.567
34.699,38.578
34.661,38.582
34.626,38.578
34.591,38.568
34.558,38.55
34.525,38.528
34.494,38.501
34.463,38.471
34.434,38.441
34.407,38.41
34.382,38.38
34.36,38.35
34.34,38.318
34.322,38.285
34.305,38.247
34.29,38.205
34.278,38.158
34.268,38.106
34.259,38.048
34.252,37.986
34.245,37.92
34.238,37.851
34.23,37.779
34.222,37.706
34.212,37.632
34.201,37.557
34.188,37.481
34.174,37.405
34.158,37.329
34.141,37.253
34.122,37.18
34.103,37.111
34.083,37.046
34.063,36.985
34.042,36.929
34.021,36.878
34,36.832
33.979,36.791
33.957,36.754
33.936,36.721
33.916,36.693
33.898,36.669
33.88,36.649
33.864,36.632
33.848,36.62
33.831,36.61
33.815,36.603
33.797,36.598
33.777,36.596
33.756,36.595
33.732,36.594
33.704,36.593
33.674,36.591
33.641,36.591
33.605,36.592
33.569,36.594
33.532,36.6
33.494,36.609
33.456,36.619
33.417,36.629
33.377,36.638
33.337,36.646
33.296,36.652
33.254,36.654
33.212,36.654
33.169,36.649
33.127,36.641
33.086,36.629
33.047,36.613
33.01,36.594
32.977,36.572
32.949,36.548
32.927,36.522
32.914,36.494
32.912,36.463
32.923,36.43
32.951,36.395
32.999,36.359
33.068,36.322
33.162,36.285
33.283,36.247
33.43,36.207
33.606,36.165
33.807,36.121
34.035,36.075
34.287,36.028
34.56,35.978
34.851,35.927
35.156,35.875
35.471,35.823
35.791,35.772
36.112,35.722
36.429,35.674
36.74,35.628
37.04,35.584
37.326,35.544
37.597,35.507
37.849,35.474
38.081,35.442
38.292,35.412
38.481,35.384
38.648,35.356
38.793,35.329
38.919,35.302
39.024,35.273
39.111,35.241
39.181,35.205
39.234,35.165
39.27,35.122
39.293,35.073
39.303,35.016
39.301,34.948
39.29,34.87
39.269,34.785
39.24,34.697
39.205,34.61
39.164,34.527
39.118,34.451
39.067,34.383
39.012,34.325
38.952,34.276
38.888,34.236
38.821,34.206
38.751,34.182
38.68,34.165
38.609,34.154
38.538,34.145
38.467,34.139
38.397,34.133
38.327,34.127
38.257,34.118
38.188,34.107
38.12,34.093
38.053,34.078
37.988,34.06
37.923,34.041
37.859,34.019
37.793,33.997
37.727,33.975
37.659,33.953
37.589,33.933
37.518,33.915
37.445,33.9
37.372,33.888
37.299,33.878
37.227,33.87
37.156,33.864
37.088,33.858
37.023,33.853
36.964,33.846
36.91,33.836
36.862,33.824
36.821,33.807
36.786,33.785
36.759,33.758
36.738,33.726
36.724,33.69
36.716,33.65
36.713,33.606
36.714,33.559
36.72,33.509
36.73,33.456
36.742,33.4
36.757,33.342
36.773,33.283
36.79,33.224
36.807,33.167
36.824,33.111
36.84,33.057
36.854,33.005
36.866,32.954
36.876,32.905
36.884,32.858
36.889,32.812
36.892,32.769
36.892,32.728
36.889,32.689
36.884,32.653
36.876,32.62
36.866,32.593
36.852,32.572
36.833,32.561
36.81,32.56
36.783,32.572
36.752,32.598
36.718,32.639
36.68,32.697
36.639,32.772
36.595,32.867
36.547,32.981
36.496,33.114
36.442,33.266
36.385,33.435
36.326,33.62
36.265,33.818
36.201,34.029
36.136,34.25
36.068,34.478
35.998,34.714
35.925,34.952
35.852,35.189
35.779,35.423
35.705,35.652
35.635,35.873
35.566,36.085
35.501,36.286
35.44,36.477
35.381,36.654
35.324,36.819
35.269,36.97
35.215,37.107
35.161,37.23
35.107,37.338
35.052,37.431
34.997,37.509
34.94,37.57
34.881,37.617
34.82,37.648
34.757,37.666
34.694,37.671
34.63,37.665
34.567,37.65
34.507,37.628
34.449,37.602
34.394,37.572
34.344,37.539
34.298,37.505
34.257,37.47
34.22,37.437
34.186,37.405
34.156,37.374
34.13,37.345
34.107,37.316
34.087,37.287
34.07,37.256
34.056,37.225
34.045,37.192
34.035,37.157
34.028,37.119
34.023,37.078
34.021,37.033
34.019,36.983
34.017,36.93
34.013,36.874
34.006,36.816
33.996,36.757
33.982,36.697
33.965,36.639
33.947,36.581
33.928,36.526
33.91,36.474
33.895,36.426
33.885,36.383
33.88,36.345
33.88,36.312
33.885,36.283
33.896,36.259
33.909,36.238
33.924,36.222
33.937,36.209
33.946,36.2
33.949,36.194
33.946,36.191
33.935,36.192
33.918,36.195
33.894,36.2
33.865,36.209
33.831,36.22
33.794,36.234
33.753,36.252
33.709,36.273
33.664,36.296
33.618,36.323
33.572,36.352
33.528,36.383
33.485,36.416
33.443,36.45
33.4,36.483
33.357,36.514
33.313,36.54
33.269,36.562
33.224,36.577
33.178,36.587
33.132,36.59
33.085,36.586
33.039,36.575
32.993,36.557
32.948,36.532
32.903,36.501
32.859,36.464
32.816,36.425
32.774,36.382
32.734,36.338
32.696,36.293
32.662,36.248
32.632,36.202
32.608,36.157
32.591,36.112
32.584,36.07
32.589,36.029
32.609,35.99
32.648,35.952
32.71,35.914
32.797,35.874
32.912,35.833
33.057,35.791
33.23,35.747
33.432,35.702
33.661,35.656
33.916,35.608
34.194,35.56
34.493,35.51
34.806,35.459
35.13,35.407
35.458,35.357
35.786,35.307
36.111,35.26
36.428,35.215
36.732,35.173
37.019,35.134
37.288,35.099
37.536,35.067
37.759,35.038
37.957,35.011
38.129,34.986
38.275,34.962
38.395,34.937
38.492,34.912
38.568,34.886
38.626,34.858
38.668,34.829
38.697,34.801
38.714,34.773
38.719,34.747
38.714,34.723
38.699,34.701
38.675,34.684
38.643,34.671
38.603,34.662
38.555,34.657
38.501,34.655
38.441,34.655
38.377,34.655
38.31,34.655
38.243,34.654
38.176,34.652
38.11,34.646
38.044,34.637
37.98,34.624
37.915,34.607
37.849,34.588
37.781,34.567
37.712,34.544
37.642,34.521
37.569,34.499
37.494,34.478
37.418,34.457
37.342,34.437
37.264,34.416
37.185,34.389
37.105,34.356
37.025,34.318
36.946,34.278
36.866,34.24
36.788,34.205
36.711,34.175
36.636,34.15
36.561,34.131
36.488,34.118
36.419,34.111
36.353,34.111
36.291,34.115
36.235,34.123
36.184,34.133
36.14,34.142
36.102,34.148
36.07,34.152
36.044,34.15
36.024,34.142
36.01,34.127
36,34.105
35.996,34.075
35.998,34.038
36.003,33.996
36.01,33.948
36.019,33.897
36.028,33.844
36.038,33.791
36.047,33.738
36.055,33.689
36.062,33.643
36.069,33.603
36.074,33.571
36.076,33.55
36.078,33.542
36.078,33.551
36.076,33.577
36.072,33.621
36.066,33.683
36.057,33.763
36.045,33.863
36.031,33.983
36.012,34.123
35.991,34.283
35.967,34.462
35.94,34.657
35.907,34.867
35.869,35.088
35.826,35.318
35.78,35.553
35.732,35.79
35.681,36.027
35.627,36.259
35.569,36.483
35.509,36.698
35.445,36.899
35.374,37.085
35.298,37.255
35.224,37.406
35.151,37.539
35.08,37.653
35.012,37.746
34.948,37.82
34.889,37.876
34.83,37.916
34.77,37.943
34.712,37.959
34.657,37.966
34.603,37.963
34.546,37.954
34.486,37.937
34.423,37.915
34.354,37.888
34.279,37.855
34.197,37.817
34.112,37.775
34.025,37.727
33.939,37.675
33.854,37.619
33.773,37.559
33.7,37.498
33.635,37.435
33.58,37.372
33.534,37.309
33.498,37.245
33.466,37.18
33.437,37.117
33.409,37.055
33.38,36.994
33.351,36.935
33.318,36.878
33.283,36.821
33.246,36.765
33.208,36.71
33.168,36.654
33.128,36.599
33.091,36.543
33.056,36.486
33.025,36.429
32.996,36.371
32.971,36.313
32.95,36.256
32.933,36.201
32.917,36.151
32.903,36.106
32.89,36.067
32.88,36.036
32.874,36.012
32.872,35.993
32.875,35.982
32.881,35.976
32.891,35.977
32.902,35.984
32.914,35.996
32.926,36.013
32.938,36.035
32.951,36.061
32.962,36.09
32.973,36.121
32.983,36.152
32.992,36.184
32.999,36.215
33.004,36.244
33.007,36.271
33.007,36.295
33.004,36.313
32.999,36.327
32.991,36.335
32.982,36.337
32.97,36.334
32.957,36.326
32.941,36.313
32.923,36.294
32.905,36.272
32.885,36.246
32.864,36.22
32.841,36.195
32.816,36.171
32.79,36.149
32.761,36.128
32.728,36.108
32.692,36.089
32.654,36.071
32.614,36.052
32.571,36.033
32.527,36.012
32.483,35.989
32.44,35.964
32.396,35.935
32.354,35.902
32.316,35.867
32.28,35.83
32.247,35.79
32.216,35.747
32.185,35.701
32.154,35.652
32.123,35.6
32.093,35.546
32.067,35.489
32.047,35.432
32.035,35.374
32.032,35.315
32.042,35.257
32.069,35.198
32.116,35.141
32.185,35.085
32.279,35.032
32.398,34.982
32.544,34.936
32.715,34.893
32.913,34.855
33.135,34.821
33.38,34.791
33.645,34.764
33.929,34.739
34.226,34.716
34.533,34.694
34.846,34.672
35.161,34.649
35.473,34.624
35.78,34.598
36.077,34.571
36.361,34.542
36.63,34.513
36.882,34.483
37.115,34.453
37.328,34.422
37.52,34.392
37.69,34.361
37.839,34.329
37.966,34.299
38.073,34.271
38.16,34.245
38.228,34.22
38.279,34.196
38.313,34.171
38.332,34.145
38.337,34.119
38.329,34.092
38.308,34.067
38.275,34.041
38.231,34.017
38.175,33.994
38.108,33.972
38.031,33.951
37.943,33.931
37.848,33.913
37.745,33.896
37.637,33.882
37.526,33.869
37.414,33.857
37.302,33.846
37.19,33.834
37.081,33.823
36.973,33.811
36.867,33.799
36.761,33.785
36.657,33.769
36.553,33.751
36.452,33.729
36.351,33.705
36.251,33.68
36.152,33.653
36.053,33.626
35.953,33.599
35.854,33.571
35.756,33.543
35.66,33.514
35.567,33.483
35.478,33.452
35.393,33.421
35.313,33.39
35.238,33.36
35.17,33.331
35.108,33.303
35.054,33.276
35.01,33.252
34.978,33.23
34.956,33.212
34.941,33.195
34.932,33.18
34.928,33.165
34.928,33.146
34.935,33.124
34.949,33.098
34.97,33.071
34.999,33.045
35.036,33.022
35.08,33.004
35.133,32.994
35.191,32.993
35.255,33.002
35.321,33.023
35.387,33.056
35.453,33.101
35.516,33.161
35.571,33.235
35.618,33.324
35.656,33.428
35.685,33.547
35.704,33.68
35.71,33.828
35.703,33.99
35.686,34.166
35.661,34.356
35.63,34.556
35.596,34.766
35.56,34.983
35.524,35.204
35.489,35.428
35.455,35.653
35.421,35.876
35.386,36.096
35.35,36.31
35.312,36.517
35.271,36.715
35.227,36.902
35.179,37.078
35.127,37.241
35.072,37.39
35.014,37.525
34.952,37.644
34.887,37.747
34.819,37.833
34.748,37.903
34.674,37.957
34.599,37.996
34.524,38.02
34.449,38.03
34.374,38.028
34.296,38.014
34.213,37.99
34.125,37.957
34.034,37.918
33.942,37.874
33.852,37.827
33.768,37.778
33.689,37.728
33.619,37.677
33.558,37.625
33.507,37.574
33.464,37.522
33.428,37.471
33.396,37.42
33.368,37.369
33.342,37.317
33.319,37.263
33.297,37.207
33.277,37.149
33.258,37.09
33.239,37.029
33.22,36.967
33.201,36.901
33.182,36.834
33.162,36.765
33.143,36.696
33.123,36.626
33.104,36.559
33.084,36.496
33.062,36.436
33.039,36.38
33.015,36.328
32.991,36.281
32.967,36.239
32.945,36.202
32.926,36.17
32.912,36.142
32.902,36.119
32.897,36.099
32.897,36.082
32.9,36.067
32.907,36.054
32.916,36.043
32.928,36.034
32.941,36.027
32.956,36.022
32.971,36.018
32.987,36.014
33.003,36.012
33.018,36.01
33.033,36.011
33.047,36.014
33.06,36.02
33.072,36.028
33.082,36.037
33.09,36.046
33.097,36.056
33.103,36.065
33.109,36.072
33.115,36.078
33.12,36.081
33.127,36.081
33.133,36.078
33.139,36.071
33.144,36.06
33.147,36.045
33.147,36.027
33.142,36.006
33.135,35.982
33.125,35.954
33.113,35.922
33.098,35.885
33.082,35.843
33.064,35.797
33.045,35.748
33.025,35.697
33.006,35.643
32.986,35.587
32.968,35.529
32.95,35.469
32.932,35.408
32.914,35.347
32.894,35.286
32.872,35.224
32.848,35.162
32.821,35.1
32.792,35.039
32.76,34.978
32.726,34.917
32.69,34.858
32.652,34.8
32.611,34.745
32.568,34.692
32.523,34.643
32.475,34.596
32.427,34.553
32.379,34.513
32.332,34.477
32.289,34.445
32.253,34.418
32.224,34.395
32.205,34.374
32.198,34.355
32.209,34.335
32.24,34.315
32.295,34.295
32.379,34.276
32.493,34.256
32.639,34.236
32.818,34.217
33.03,34.198
33.273,34.179
33.543,34.161
33.837,34.144
34.15,34.127
34.478,34.11
34.816,34.092
35.159,34.075
35.503,34.059
35.842,34.043
36.173,34.029
36.492,34.016
36.795,34.005
37.079,33.996
37.342,33.99
37.583,33.986
37.801,33.984
37.995,33.984
38.164,33.984
38.308,33.986
38.43,33.99
38.529,33.995
38.607,34.001
38.667,34.006
38.709,34.008
38.735,34.007
38.744,34.003
38.74,33.996
38.723,33.985
38.695,33.971
38.655,33.955
38.606,33.938
38.549,33.919
38.485,33.899
38.413,33.879
38.335,33.86
38.253,33.841
38.166,33.823
38.074,33.806
37.978,33.789
37.879,33.773
37.776,33.757
37.67,33.741
37.562,33.725
37.454,33.708
37.345,33.691
37.237,33.673
37.129,33.653
37.021,33.632
36.914,33.609
36.808,33.585
36.702,33.56
36.596,33.535
36.49,33.51
36.384,33.484
36.276,33.456
36.167,33.425
36.059,33.391
35.951,33.354
35.844,33.315
35.739,33.275
35.639,33.234
35.545,33.193
35.459,33.153
35.381,33.115
35.313,33.079
35.254,33.047
35.205,33.02
35.167,32.998
35.139,32.982
35.123,32.973
35.116,32.971
35.118,32.977
35.127,32.993
35.143,33.02
35.165,33.06
35.193,33.114
35.227,33.184
35.262,33.272
35.298,33.377
35.333,33.499
35.366,33.638
35.399,33.794
35.431,33.966
35.464,34.152
35.497,34.353
35.53,34.564
35.562,34.783
35.593,35.007
35.623,35.232
35.652,35.457
35.68,35.679
35.706,35.895
35.729,36.103
35.748,36.302
35.76,36.49
35.763,36.665
35.756,36.826
35.74,36.973
35.714,37.106
35.681,37.223
35.639,37.326
35.59,37.413
35.535,37.485
35.475,37.541
35.413,37.579
35.349,37.597
35.283,37.597
35.216,37.582
35.147,37.556
35.079,37.521
35.011,37.48
34.941,37.437
34.867,37.395
34.788,37.354
34.705,37.316
34.621,37.281
34.539,37.25
34.46,37.222
34.386,37.196
34.316,37.17
34.252,37.144
34.193,37.117
34.139,37.089
34.087,37.059
34.038,37.027
33.991,36.992
33.946,36.953
33.9,36.911
33.853,36.867
33.806,36.822
33.758,36.775
33.709,36.727
33.657,36.678
33.606,36.628
33.554,36.577
33.502,36.524
33.449,36.47
33.397,36.416
33.346,36.362
33.295,36.309
33.247,36.257
33.201,36.206
33.159,36.158
33.121,36.113
33.085,36.071
33.052,36.034
33.019,36.002
32.985,35.975
32.95,35.952
32.916,35.933
32.885,35.918
32.857,35.907
32.834,35.9
32.815,35.896
32.803,35.897
32.796,35.899
32.795,35.903
32.799,35.906
32.806,35.91
32.815,35.915
32.825,35.919
32.835,35.924
32.843,35.928
32.85,35.931
32.856,35.934
32.858,35.935
32.856,35.935
32.851,35.933
32.842,35.93
32.83,35.924
32.817,35.916
32.803,35.905
32.79,35.89
32.779,35.871
32.769,35.849
32.761,35.823
32.756,35.795
32.753,35.766
32.751,35.734
32.75,35.702
32.748,35.668
32.746,35.634
32.743,35.599
32.738,35.564
32.732,35.53
32.727,35.495
32.72,35.461
32.712,35.426
32.703,35.39
32.692,35.352
32.679,35.313
32.662,35.272
32.641,35.23
32.618,35.186
32.59,35.14
32.558,35.092
32.523,35.042
32.485,34.99
32.446,34.938
32.406,34.886
32.365,34.835
32.326,34.786
32.288,34.739
32.254,34.693
32.223,34.65
32.196,34.608
32.174,34.567
32.155,34.529
32.142,34.493
32.134,34.459
32.137,34.428
32.152,34.398
32.181,34.369
32.229,34.341
32.299,34.313
32.396,34.288
32.52,34.265
32.675,34.246
32.862,34.231
33.081,34.217
33.331,34.206
33.609,34.195
33.913,34.185
34.237,34.175
34.577,34.163
34.926,34.148
35.279,34.128
35.631,34.104
35.976,34.076
36.309,34.044
36.626,34.009
36.924,33.973
37.2,33.937
37.451,33.902
37.675,33.869
37.873,33.838
38.044,33.809
38.19,33.784
38.309,33.762
38.405,33.744
38.479,33.729
38.533,33.717
38.568,33.706
38.586,33.696
38.588,33.685
38.576,33.674
38.551,33.662
38.513,33.65
38.46,33.639
38.393,33.629
38.313,33.619
38.223,33.609
38.123,33.599
38.015,33.588
37.905,33.577
37.796,33.566
37.69,33.554
37.586,33.542
37.486,33.529
37.388,33.515
37.292,33.498
37.193,33.48
37.091,33.459
36.992,33.437
36.897,33.413
36.806,33.388
36.719,33.363
36.635,33.336
36.554,33.31
36.474,33.284
36.394,33.257
36.313,33.231
36.232,33.205
36.152,33.179
36.071,33.154
35.99,33.128
35.913,33.102
35.839,33.075
35.768,33.047
35.699,33.019
35.631,32.99
35.564,32.962
35.497,32.935
35.432,32.907
35.368,32.879
35.309,32.849
35.254,32.818
35.207,32.786
35.169,32.753
35.14,32.721
35.123,32.688
35.116,32.655
35.119,32.623
35.132,32.591
35.153,32.561
35.182,32.534
35.218,32.51
35.261,32.489
35.308,32.474
35.358,32.463
35.409,32.458
35.46,32.46
35.511,32.47
35.559,32.49
35.603,32.523
35.644,32.569
35.68,32.63
35.71,32.707
35.736,32.803
35.756,32.916
35.77,33.049
35.778,33.2
35.78,33.369
35.775,33.555
35.764,33.757
35.745,33.971
35.72,34.195
35.689,34.425
35.652,34.66
35.609,34.897
35.561,35.133
35.509,35.365
35.452,35.591
35.393,35.809
35.33,36.014
35.265,36.206
35.199,36.383
35.13,36.545
35.06,36.691
34.989,36.821
34.917,36.935
34.846,37.034
34.776,37.117
34.706,37.185
34.637,37.24
34.568,37.282
34.501,37.313
34.434,37.334
34.368,37.346
34.304,37.35
34.241,37.345
34.178,37.334
34.115,37.317
34.052,37.296
33.988,37.271
33.923,37.244
33.859,37.213
33.796,37.179
33.734,37.142
33.675,37.103
33.618,37.062
33.564,37.019
33.514,36.974
33.467,36.929
33.424,36.882
33.384,36.836
33.348,36.79
33.316,36.744
33.288,36.698
33.262,36.654
33.239,36.612
33.216,36.57
33.195,36.529
33.176,36.488
33.157,36.445
33.141,36.4
33.126,36.356
33.113,36.312
33.101,36.27
33.091,36.229
33.082,36.189
33.073,36.151
33.065,36.115
33.057,36.083
33.049,36.055
33.039,36.031
33.03,36.01
33.019,35.994
33.009,35.98
33,35.97
32.991,35.962
32.983,35.958
32.976,35.956
32.97,35.957
32.964,35.96
32.959,35.966
32.955,35.974
32.952,35.983
32.95,35.993
32.949,36.005
32.95,36.019
32.952,36.036
32.955,36.055
32.959,36.073
32.964,36.09
32.969,36.105
32.974,36.116
32.978,36.123
32.981,36.126
32.982,36.125
32.981,36.12
32.976,36.112
32.969,36.1
32.959,36.084
32.945,36.066
32.929,36.044
32.909,36.019
32.886,35.99
32.86,35.958
32.831,35.923
32.799,35.886
32.764,35.847
32.726,35.806
32.687,35.766
32.647,35.727
32.606,35.689
32.566,35.653
32.526,35.617
32.488,35.581
32.452,35.544
32.417,35.505
32.385,35.465
32.356,35.422
32.329,35.377
32.305,35.328
32.284,35.275
32.266,35.218
32.253,35.156
32.247,35.09
32.251,35.02
32.267,34.949
32.299,34.875
32.35,34.802
32.424,34.728
32.525,34.656
32.655,34.587
32.816,34.52
33.012,34.458
33.241,34.4
33.504,34.346
33.796,34.297
34.115,34.25
34.457,34.207
34.816,34.166
35.186,34.128
35.561,34.095
35.935,34.066
36.299,34.042
36.65,34.021
36.982,34.003
37.293,33.986
37.58,33.969
37.84,33.951
38.073,33.933
38.281,33.914
38.464,33.893
38.62,33.869
38.751,33.843
38.856,33.814
38.937,33.784
38.995,33.752
39.032,33.72
39.048,33.688
39.045,33.657
39.025,33.628
38.99,33.6
38.941,33.575
38.881,33.552
38.812,33.532
38.735,33.515
38.652,33.502
38.564,33.493
38.472,33.486
38.378,33.483
38.282,33.481
38.185,33.481
38.088,33.483
37.99,33.488
37.89,33.495
37.79,33.505
37.687,33.515
37.581,33.525
37.471,33.533
37.359,33.54
37.245,33.545
37.128,33.548
37.01,33.551
36.891,33.554
36.769,33.557
36.647,33.559
36.523,33.562
36.4,33.566
36.276,33.57
36.153,33.575
36.033,33.579
35.915,33.581
35.802,33.58
35.695,33.575
35.595,33.566
35.503,33.555
35.42,33.541
35.348,33.525
35.289,33.507
35.243,33.488
35.212,33.468
35.194,33.446
35.191,33.422
35.2,33.397
35.223,33.372
35.257,33.347
35.302,33.322
35.357,33.296
35.421,33.269
35.491,33.241
35.566,33.211
35.644,33.18
35.725,33.147
35.805,33.115
35.884,33.082
35.96,33.051
36.032,33.022
36.099,32.994
36.159,32.967
36.212,32.943
36.258,32.921
36.295,32.904
36.324,32.89
36.346,32.88
36.359,32.875
36.365,32.873
36.362,32.878
36.353,32.89
36.336,32.912
36.314,32.946
36.285,32.994
36.251,33.057
36.211,33.136
36.167,33.232
36.117,33.344
36.064,33.47
36.006,33.612
35.945,33.768
35.881,33.939
35.818,34.122
35.754,34.317
35.689,34.52
35.624,34.728
35.557,34.938
35.487,35.15
35.414,35.363
35.337,35.573
35.257,35.78
35.174,35.982
35.089,36.176
35.003,36.36
34.917,36.533
34.832,36.694
34.75,36.841
34.669,36.974
34.591,37.09
34.515,37.19
34.442,37.272
34.372,37.338
34.305,37.386
34.241,37.419
34.181,37.438
34.124,37.443
34.069,37.435
34.019,37.417
33.974,37.39
33.935,37.356
33.903,37.318
33.875,37.277
33.852,37.235
33.831,37.193
33.81,37.15
33.789,37.108
33.767,37.064
33.743,37.02
33.716,36.976
33.687,36.932
33.657,36.886
33.627,36.838
33.597,36.788
33.57,36.733
33.544,36.674
33.522,36.61
33.503,36.542
33.488,36.471
33.477,36.398
33.471,36.323
33.468,36.247
33.468,36.171
33.47,36.094
33.475,36.019
33.481,35.946
33.488,35.878
33.496,35.814
33.504,35.757
33.512,35.705
33.519,35.66
33.525,35.621
33.529,35.589
33.532,35.563
33.534,35.544
33.533,35.532
33.532,35.526
33.531,35.526
33.528,35.53
33.526,35.539
33.523,35.551
33.519,35.567
33.514,35.585
33.508,35.608
33.5,35.634
33.49,35.662
33.477,35.691
33.462,35.721
33.445,35.751
33.425,35.78
33.403,35.81
33.377,35.84
33.349,35.874
33.319,35.909
33.286,35.943
33.253,35.976
33.218,36.005
33.184,36.029
33.15,36.046
33.117,36.056
33.085,36.059
33.056,36.053
33.03,36.038
33.008,36.016
32.993,35.985
32.987,35.947
32.991,35.903
33.008,35.853
33.042,35.799
33.095,35.741
33.172,35.679
33.274,35.615
33.404,35.549
33.564,35.483
33.753,35.416
33.971,35.352
34.218,35.288
34.49,35.227
34.785,35.167
35.099,35.109
35.428,35.053
35.766,35.001
36.107,34.951
36.448,34.904
36.782,34.859
37.106,34.817
37.416,34.775
37.708,34.735
37.981,34.696
38.233,34.658
38.461,34.62
38.665,34.581
38.845,34.541
39,34.499
39.132,34.456
39.242,34.41
39.331,34.364
39.401,34.317
39.453,34.272
39.49,34.229
39.514,34.189
39.527,34.152
39.53,34.119
39.523,34.089
39.505,34.063
39.477,34.04
39.438,34.021
39.388,34.005
39.326,33.99
39.252,33.977
39.167,33.965
39.07,33.953
38.963,33.943
38.849,33.934
38.729,33.926
38.606,33.92
38.483,33.913
38.358,33.907
38.234,33.899
38.109,33.89
37.984,33.88
37.86,33.869
37.737,33.858
37.615,33.845
37.495,33.831
37.375,33.814
37.257,33.796
37.139,33.776
37.022,33.756
36.906,33.735
36.792,33.715
36.68,33.696
36.572,33.677
36.468,33.659
36.37,33.642
36.278,33.626
36.195,33.611
36.12,33.597
36.055,33.585
36.001,33.574
35.957,33.565
35.925,33.557
35.904,33.55
35.894,33.545
35.894,33.542
35.904,33.54
35.924,33.542
35.953,33.544
35.99,33.547
36.034,33.549
36.084,33.549
36.14,33.546
36.199,33.541
36.261,33.532
36.324,33.522
36.387,33.508
36.449,33.492
36.509,33.473
36.566,33.451
36.62,33.427
36.669,33.401
36.713,33.375
36.752,33.35
36.786,33.325
36.813,33.301
36.833,33.277
36.847,33.254
36.855,33.23
36.857,33.206
36.854,33.181
36.846,33.154
36.833,33.124
36.814,33.093
36.792,33.06
36.765,33.027
36.734,32.994
36.699,32.964
36.659,32.937
36.614,32.916
36.565,32.902
36.51,32.895
36.452,32.898
36.391,32.912
36.329,32.938
36.268,32.979
36.207,33.038
36.148,33.117
36.09,33.214
36.033,33.331
35.977,33.464
35.923,33.613
35.869,33.775
35.816,33.948
35.763,34.13
35.71,34.319
35.656,34.512
35.602,34.706
35.548,34.901
35.495,35.096
35.445,35.289
35.398,35.479
35.353,35.664
35.31,35.841
35.269,36.009
35.23,36.166
35.193,36.312
35.158,36.444
35.124,36.564
35.091,36.67
35.058,36.763
35.025,36.843
34.992,36.91
34.959,36.964
34.924,37.005
34.888,37.033
34.851,37.051
34.814,37.06
34.776,37.061
34.738,37.055
34.701,37.043
34.664,37.024
34.627,37
34.591,36.97
34.556,36.935
34.521,36.895
34.487,36.851
34.453,36.803
34.42,36.752
34.388,36.699
34.36,36.644
34.335,36.587
34.316,36.529
34.3,36.472
34.29,36.415
34.283,36.359
34.28,36.303
34.279,36.246
34.28,36.188
34.281,36.128
34.284,36.067
34.286,36.007
34.289,35.949
34.29,35.893
34.291,35.84
34.289,35.79
34.286,35.744
34.281,35.702
34.274,35.666
34.263,35.634
34.25,35.609
34.233,35.589
34.212,35.575
34.188,35.567
34.16,35.564
34.128,35.565
34.092,35.57
34.053,35.577
34.012,35.588
33.969,35.6
33.924,35.613
33.879,35.626
33.834,35.639
33.792,35.653
33.753,35.669
33.718,35.687
33.687,35.709
33.663,35.732
33.645,35.758
33.637,35.784
33.642,35.812
33.661,35.84
33.697,35.868
33.755,35.896
33.837,35.922
33.944,35.946
34.079,35.968
34.242,35.987
34.434,36.002
34.652,36.015
34.895,36.023
35.159,36.027
35.442,36.027
35.737,36.022
36.042,36.011
36.351,35.994
36.659,35.971
36.963,35.944
37.258,35.913
37.539,35.881
37.805,35.847
38.051,35.812
38.278,35.775
38.483,35.737
38.667,35.699
38.828,35.659
38.967,35.619
39.085,35.578
39.181,35.537
39.259,35.496
39.318,35.455
39.36,35.414
39.388,35.372
39.401,35.332
39.401,35.291
39.389,35.251
39.365,35.213
39.331,35.174
39.287,35.136
39.236,35.097
39.178,35.059
39.113,35.021
39.043,34.984
38.966,34.947
38.883,34.91
38.793,34.871
38.698,34.83
38.596,34.786
38.491,34.74
38.384,34.692
38.274,34.645
38.165,34.598
38.054,34.552
37.945,34.507
37.835,34.464
37.727,34.422
37.618,34.384
37.51,34.348
37.403,34.315
37.296,34.285
37.189,34.259
37.083,34.235
36.978,34.212
36.875,34.189
36.776,34.166
36.681,34.144
36.59,34.12
36.505,34.096
36.424,34.071
36.349,34.045
36.28,34.017
36.217,33.989
36.16,33.959
36.11,33.929
36.066,33.901
36.031,33.874
36.006,33.848
35.989,33.823
35.983,33.798
35.985,33.774
35.997,33.751
36.017,33.728
36.044,33.706
36.077,33.685
36.113,33.665
36.151,33.646
36.191,33.627
36.23,33.609
36.268,33.591
36.304,33.574
36.337,33.559
36.368,33.545
36.395,33.532
36.419,33.519
36.439,33.508
36.454,33.498
36.465,33.49
36.472,33.483
36.473,33.478
36.47,33.474
36.463,33.469
36.45,33.463
36.433,33.456
36.41,33.447
36.382,33.436
36.35,33.424
36.312,33.411
36.27,33.398
36.222,33.383
36.17,33.367
36.114,33.349
36.052,33.329
35.987,33.307
35.918,33.284
35.846,33.261
35.772,33.239
35.696,33.218
35.619,33.198
35.542,33.177
35.464,33.156
35.388,33.134
35.312,33.11
35.237,33.084
35.163,33.056
35.09,33.026
35.016,32.995
34.943,32.964
34.869,32.934
34.795,32.905
34.721,32.879
34.649,32.856
34.577,32.838
34.509,32.826
34.443,32.819
34.381,32.819
34.323,32.827
34.27,32.845
34.22,32.875
34.175,32.919
34.133,32.977
34.093,33.051
34.056,33.14
34.02,33.245
33.986,33.365
33.953,33.501
33.923,33.652
33.896,33.816
33.872,33.991
33.852,34.174
33.838,34.364
33.827,34.558
33.819,34.754
33.813,34.95
33.808,35.145
33.803,35.337
33.798,35.525
33.791,35.708
33.784,35.884
33.776,36.051
33.768,36.21
33.761,36.358
33.755,36.495
33.751,36.621
33.748,36.735
33.745,36.836
33.744,36.923
33.744,36.995
33.745,37.053
33.746,37.096
33.747,37.125
33.748,37.14
33.747,37.143
33.744,37.134
33.739,37.113
33.731,37.083
33.72,37.044
33.705,36.998
33.686,36.948
33.665,36.895
33.641,36.84
33.614,36.784
33.586,36.729
33.556,36.675
33.524,36.623
33.49,36.574
33.454,36.528
33.417,36.484
33.378,36.443
33.338,36.402
33.296,36.36
33.253,36.318
33.21,36.273
33.167,36.224
33.124,36.171
33.081,36.115
33.04,36.058
33.001,35.999
32.964,35.94
32.931,35.883
32.902,35.827
32.877,35.774
32.859,35.725
32.849,35.681
32.848,35.641
32.858,35.608
32.884,35.581
32.927,35.56
32.991,35.548
33.078,35.544
33.193,35.547
33.336,35.556
33.509,35.571
33.712,35.59
33.943,35.611
34.2,35.634
34.481,35.658
34.781,35.682
35.097,35.705
35.423,35.726
35.755,35.746
36.087,35.762
36.416,35.777
36.736,35.79
37.044,35.801
37.336,35.812
37.609,35.823
37.862,35.833
38.092,35.844
38.299,35.855
38.481,35.865
38.639,35.876
38.772,35.887
38.883,35.899
38.971,35.91
39.04,35.921
39.089,35.931
39.122,35.938
39.137,35.943
39.138,35.945
39.125,35.944
39.099,35.94
39.06,35.932
39.011,35.921
38.953,35.905
38.885,35.884
38.811,35.858
38.729,35.828
38.641,35.793
38.549,35.753
38.451,35.709
38.35,35.661
38.246,35.608
38.139,35.552
38.03,35.494
37.92,35.434
37.808,35.374
37.697,35.314
37.585,35.254
37.474,35.193
37.363,35.133
37.253,35.074
37.143,35.016
37.034,34.961
36.925,34.91
36.815,34.863
36.706,34.821
36.598,34.785
36.491,34.752
36.387,34.724
36.287,34.699
36.193,34.677
36.104,34.657
36.024,34.637
35.951,34.618
35.888,34.598
35.835,34.575
35.791,34.55
35.758,34.521
35.736,34.489
35.725,34.454
35.725,34.417
35.737,34.378
35.76,34.337
35.794,34.296
35.837,34.253
35.887,34.212
35.943,34.171
36.002,34.131
36.064,34.093
36.126,34.057
36.187,34.022
36.245,33.988
36.3,33.955
36.349,33.923
36.393,33.892
36.431,33.863
36.464,33.836
36.492,33.811
36.516,33.789
36.536,33.768
36.551,33.748
36.562,33.731
36.568,33.715
36.569,33.701
36.565,33.689
36.554,33.678
36.538,33.667
36.516,33.657
36.488,33.647
36.455,33.636
36.417,33.627
36.375,33.617
36.327,33.608
36.275,33.599
36.219,33.589
36.16,33.579
36.097,33.567
36.032,33.554
35.966,33.541
35.901,33.527
35.835,33.513
35.769,33.498
35.704,33.481
35.638,33.463
35.57,33.444
35.501,33.423
35.429,33.402
35.355,33.379
35.279,33.355
35.203,33.33
35.126,33.305
35.05,33.28
34.977,33.256
34.907,33.233
34.84,33.212
34.779,33.193
34.724,33.178
34.675,33.166
34.631,33.157
34.592,33.153
34.557,33.155
34.526,33.165
34.498,33.184
34.473,33.213
34.449,33.255
34.428,33.307
34.407,33.37
34.388,33.444
34.369,33.529
34.35,33.624
34.333,33.732
34.316,33.853
34.301,33.985
34.288,34.129
34.276,34.283
34.266,34.446
34.258,34.616
34.25,34.792
34.244,34.971
34.238,35.151
34.233,35.329
34.227,35.504
34.22,35.672
34.212,35.834
34.203,35.986
34.193,36.129
34.182,36.261
34.169,36.381
34.157,36.49
34.145,36.586
34.132,36.669
34.119,36.738
34.104,36.794
34.086,36.837
34.066,36.868
34.042,36.889
34.014,36.9
33.983,36.901
33.949,36.893
33.913,36.877
33.874,36.855
33.834,36.827
33.793,36.794
33.753,36.757
33.713,36.717
33.675,36.673
33.637,36.626
33.601,36.575
33.565,36.522
33.53,36.465
33.495,36.406
33.463,36.344
33.433,36.281
33.408,36.215
33.389,36.148
33.379,36.079
33.381,36.01
33.397,35.943
33.431,35.882
33.483,35.826
33.557,35.774
33.655,35.727
33.777,35.682
33.925,35.639
34.097,35.596
34.293,35.554
34.512,35.512
34.751,35.469
35.008,35.427
35.281,35.387
35.566,35.35
35.86,35.317
36.158,35.29
36.455,35.272
36.748,35.26
37.033,35.258
37.305,35.263
37.562,35.276
37.8,35.295
38.017,35.319
38.213,35.348
38.386,35.38
38.537,35.416
38.665,35.454
38.771,35.492
38.857,35.529
38.923,35.565
38.971,35.598
39.003,35.63
39.019,35.658
39.021,35.685
39.011,35.709
38.99,35.732
38.959,35.752
38.921,35.771
38.875,35.789
38.823,35.806
38.765,35.822
38.701,35.836
38.631,35.849
38.557,35.86
38.477,35.869
38.394,35.874
38.307,35.876
38.216,35.875
38.123,35.871
38.027,35.864
37.928,35.853
37.827,35.838
37.722,35.818
37.615,35.794
37.504,35.766
37.391,35.735
37.275,35.702
37.156,35.666
37.035,35.629
36.914,35.589
36.793,35.549
36.672,35.507
36.554,35.464
36.439,35.42
36.33,35.373
36.226,35.325
36.129,35.275
36.038,35.223
35.955,35.17
35.881,35.116
35.815,35.061
35.759,35.007
35.714,34.953
35.68,34.9
35.657,34.848
35.646,34.797
35.645,34.747
35.653,34.697
35.67,34.65
35.695,34.606
35.728,34.567
35.767,34.531
35.813,34.5
35.863,34.474
35.915,34.451
35.967,34.433
36.017,34.418
36.064,34.408
36.105,34.402
36.141,34.399
36.17,34.398
36.194,34.396
36.211,34.394
36.223,34.39
36.232,34.383
36.237,34.372
36.239,34.359
36.238,34.342
36.233,34.322
36.224,34.3
36.211,34.276
36.193,34.251
36.169,34.226
36.139,34.201
36.102,34.179
36.059,34.158
36.008,34.139
35.952,34.119
35.89,34.1
35.824,34.081
35.754,34.064
35.681,34.049
35.607,34.036
35.53,34.027
35.453,34.019
35.375,34.012
35.296,34.005
35.217,33.998
35.137,33.989
35.057,33.978
34.976,33.964
34.895,33.946
34.813,33.925
34.732,33.9
34.653,33.872
34.576,33.84
34.501,33.806
34.429,33.771
34.36,33.734
34.293,33.696
34.229,33.658
34.167,33.62
34.108,33.581
34.05,33.544
33.994,33.509
33.94,33.478
33.887,33.452
33.836,33.431
33.788,33.417
33.744,33.409
33.704,33.409
33.669,33.419
33.639,33.439
33.615,33.471
33.595,33.517
33.58,33.578
33.567,33.654
33.558,33.745
33.55,33.851
33.543,33.972
33.538,34.106
33.533,34.254
33.53,34.414
33.527,34.584
33.525,34.763
33.523,34.949
33.523,35.139
33.524,35.333
33.527,35.529
33.532,35.723
33.538,35.914
33.546,36.1
33.556,36.278
33.566,36.447
33.576,36.603
33.587,36.748
33.596,36.881
33.605,37.003
33.611,37.112
33.616,37.21
33.62,37.295
33.622,37.37
33.623,37.433
33.624,37.487
33.626,37.531
33.627,37.566
33.627,37.592
33.626,37.609
33.622,37.618
33.616,37.62
33.607,37.613
33.594,37.599
33.578,37.58
33.56,37.555
33.539,37.527
33.517,37.495
33.494,37.46
33.472,37.422
33.45,37.38
33.43,37.336
33.413,37.29
33.4,37.244
33.392,37.196
33.391,37.147
33.399,37.097
33.42,37.046
33.456,36.993
33.509,36.939
33.583,36.885
33.679,36.83
33.801,36.774
33.95,36.716
34.127,36.657
34.332,36.598
34.563,36.537
34.818,36.477
35.094,36.418
35.388,36.361
35.694,36.307
36.008,36.255
36.324,36.206
36.64,36.161
36.949,36.121
37.25,36.087
37.54,36.06
37.815,36.039
38.075,36.024
38.317,36.016
38.541,36.013
38.744,36.015
38.926,36.022
39.088,36.033
39.23,36.049
39.352,36.067
39.454,36.089
39.539,36.114
39.608,36.148
39.66,36.192
39.697,36.243
39.719,36.301
39.728,36.362
39.725,36.422
39.71,36.478
39.684,36.527
39.647,36.568
39.6,36.599
39.544,36.619
39.482,36.628
39.415,36.627
39.344,36.617
39.27,36.599
39.193,36.574
39.112,36.543
39.027,36.508
38.939,36.472
38.848,36.436
38.757,36.401
38.667,36.367
38.579,36.334
38.493,36.301
38.409,36.269
38.327,36.238
38.244,36.207
38.161,36.177
38.076,36.146
37.988,36.115
37.898,36.081
37.804,36.045
37.706,36.005
37.607,35.961
37.507,35.913
37.408,35.86
37.31,35.803
37.214,35.743
37.122,35.679
37.035,35.612
36.953,35.543
36.878,35.473
36.811,35.402
36.753,35.334
36.704,35.267
36.664,35.204
36.634,35.143
36.613,35.085
36.599,35.031
36.593,34.982
36.594,34.937
36.599,34.897
36.609,34.861
36.623,34.829
36.639,34.8
36.658,34.771
36.679,34.744
36.701,34.716
36.723,34.688
36.744,34.66
36.764,34.63
36.782,34.6
36.797,34.57
36.809,34.539
36.818,34.508
36.823,34.476
36.823,34.445
36.818,34.414
36.809,34.382
36.794,34.35
36.776,34.318
36.753,34.285
36.727,34.252
36.697,34.221
36.662,34.192
36.624,34.165
36.581,34.142
36.535,34.122
36.484,34.105
36.431,34.092
36.375,34.083
36.317,34.079
36.258,34.079
36.197,34.082
36.134,34.089
36.07,34.096
36.003,34.103
35.934,34.109
35.863,34.113
35.789,34.114
35.712,34.111
35.633,34.103
35.552,34.092
35.47,34.077
35.387,34.058
35.304,34.035
35.222,34.009
35.141,33.98
35.064,33.951
34.99,33.921
34.921,33.892
34.855,33.864
34.793,33.836
34.734,33.81
34.677,33.786
34.622,33.765
34.569,33.747
34.518,33.736
34.469,33.73
34.422,33.731
34.379,33.74
34.34,33.757
34.304,33.784
34.273,33.824
34.244,33.878
34.219,33.947
34.195,34.032
34.172,34.132
34.15,34.248
34.128,34.379
34.108,34.525
34.09,34.684
34.073,34.855
34.057,35.038
34.042,35.229
34.028,35.428
34.015,35.631
34.002,35.837
33.991,36.043
33.981,36.246
33.972,36.445
33.963,36.638
33.954,36.821
33.945,36.994
33.936,37.154
33.927,37.301
33.918,37.435
33.91,37.557
33.903,37.667
33.898,37.766
33.894,37.853
33.892,37.929
33.891,37.995
33.891,38.05
33.892,38.094
33.893,38.128
33.893,38.151
33.891,38.164
33.886,38.166
33.877,38.158
33.863,38.14
33.845,38.113
33.822,38.079
33.796,38.038
33.765,37.993
33.732,37.945
33.695,37.893
33.656,37.838
33.614,37.78
33.569,37.721
33.524,37.661
33.477,37.6
33.43,37.539
33.383,37.479
33.337,37.42
33.293,37.362
33.252,37.305
33.214,37.249
33.183,37.194
33.159,37.139
33.146,37.085
33.146,37.03
33.161,36.975
33.196,36.921
33.252,36.866
33.333,36.813
33.44,36.762
33.576,36.716
33.741,36.674
33.936,36.636
34.161,36.602
34.413,36.572
34.692,36.547
34.994,36.527
35.314,36.512
35.649,36.502
35.991,36.497
36.337,36.496
36.68,36.501
37.015,36.509
37.339,36.522
37.648,36.537
37.939,36.556
38.209,36.576
38.458,36.597
38.685,36.617
38.89,36.638
39.071,36.657
39.231,36.675
39.367,36.695
39.483,36.716
39.577,36.739
39.653,36.762
39.711,36.784
39.754,36.805
39.782,36.824
39.797,36.841
39.799,36.856
39.789,36.868
39.768,36.877
39.737,36.882
39.695,36.883
39.644,36.88
39.587,36.872
39.523,36.86
39.457,36.843
39.387,36.821
39.315,36.794
39.241,36.762
39.166,36.724
39.091,36.681
39.015,36.633
38.94,36.58
38.866,36.524
38.793,36.465
38.719,36.405
38.645,36.343
38.57,36.278
38.493,36.212
38.414,36.146
38.332,36.079
38.247,36.013
38.159,35.948
38.068,35.884
37.974,35.821
37.881,35.76
37.787,35.702
37.694,35.645
37.603,35.591
37.517,35.539
37.438,35.49
37.365,35.444
37.3,35.401
37.241,35.361
37.188,35.323
37.14,35.287
37.097,35.253
37.056,35.221
37.019,35.19
36.985,35.16
36.954,35.128
36.924,35.095
36.896,35.059
36.872,35.02
36.85,34.979
36.833,34.936
36.82,34.892
36.812,34.845
36.807,34.797
36.806,34.749
36.808,34.702
36.811,34.656
36.816,34.613
36.822,34.572
36.827,34.535
36.831,34.501
36.832,34.471
36.828,34.445
36.821,34.421
36.809,34.399
36.794,34.38
36.777,34.363
36.759,34.347
36.739,34.333
36.716,34.32
36.69,34.307
36.659,34.295
36.624,34.284
36.585,34.275
36.54,34.268
36.491,34.263
36.438,34.258
36.381,34.253
36.319,34.246
36.253,34.238
36.181,34.228
36.104,34.217
36.022,34.204
35.934,34.191
35.844,34.177
35.752,34.163
35.66,34.15
35.568,34.137
35.477,34.124
35.385,34.111
35.295,34.098
35.206,34.085
35.119,34.071
35.032,34.058
34.948,34.043
34.866,34.026
34.786,34.007
34.709,33.985
34.635,33.962
34.563,33.936
34.494,33.909
34.428,33.88
34.364,33.85
34.303,33.819
34.245,33.79
34.189,33.763
34.136,33.74
34.085,33.723
34.037,33.712
33.992,33.708
33.95,33.714
33.911,33.731
33.874,33.76
33.839,33.802
33.807,33.859
33.775,33.932
33.744,34.021
33.712,34.126
33.679,34.249
33.645,34.389
33.61,34.546
33.575,34.72
33.541,34.908
33.507,35.109
33.475,35.32
33.445,35.538
33.418,35.761
33.392,35.985
33.368,36.209
33.345,36.43
33.324,36.644
33.306,36.848
33.291,37.04
33.278,37.216
33.267,37.377
33.257,37.52
33.248,37.645
33.239,37.755
33.23,37.848
33.221,37.925
33.211,37.987
33.199,38.033
33.186,38.066
33.171,38.085
33.154,38.093
33.133,38.092
33.111,38.082
33.085,38.064
33.058,38.04
33.029,38.009
32.998,37.974
32.967,37.936
32.936,37.895
32.905,37.851
32.874,37.803
32.842,37.751
32.811,37.693
32.781,37.632
32.75,37.569
32.72,37.504
32.688,37.439
32.655,37.373
32.62,37.309
32.583,37.245
32.543,37.183
32.501,37.123
32.457,37.066
32.411,37.012
32.364,36.961
32.318,36.914
32.274,36.868
32.232,36.824
32.195,36.781
32.162,36.739
32.137,36.697
32.12,36.654
32.113,36.612
32.119,36.569
32.139,36.526
32.177,36.482
32.235,36.438
32.317,36.394
32.425,36.352
32.562,36.313
32.731,36.277
32.932,36.247
33.165,36.222
33.43,36.204
33.724,36.194
34.044,36.193
34.386,36.201
34.745,36.218
35.114,36.245
35.487,36.279
35.859,36.319
36.224,36.362
36.579,36.407
36.918,36.452
37.24,36.495
37.542,36.535
37.821,36.571
38.076,36.603
38.306,36.629
38.508,36.649
38.684,36.664
38.833,36.675
38.957,36.682
39.057,36.685
39.135,36.686
39.193,36.685
39.231,36.68
39.25,36.673
39.252,36.663
39.24,36.65
39.216,36.636
39.181,36.619
39.136,36.6
39.082,36.579
39.018,36.556
38.947,36.53
38.867,36.501
38.781,36.47
38.688,36.437
38.59,36.402
38.487,36.366
38.38,36.328
38.269,36.29
38.156,36.25
38.043,36.21
37.931,36.168
37.819,36.124
37.71,36.076
37.604,36.023
37.5,35.967
37.397,35.909
37.295,35.848
37.195,35.788
37.096,35.73
37,35.676
36.906,35.625
36.816,35.578
36.731,35.535
36.658,35.493
36.598,35.453
36.551,35.414
36.514,35.377
36.483,35.341
36.457,35.304
36.432,35.268
36.404,35.231
36.373,35.193
36.335,35.155
36.291,35.116
36.242,35.077
36.189,35.039
36.137,35.002
36.086,34.966
36.039,34.931
35.998,34.897
35.962,34.863
35.933,34.83
35.909,34.799
35.891,34.771
35.879,34.744
35.871,34.72
35.868,34.699
35.869,34.679
35.874,34.662
35.882,34.646
35.892,34.633
35.902,34.622
35.911,34.612
35.919,34.603
35.923,34.594
35.925,34.585
35.922,34.576
35.915,34.565
35.903,34.554
35.887,34.541
35.865,34.527
35.839,34.511
35.809,34.494
35.775,34.476
35.737,34.456
35.694,34.436
35.646,34.415
35.593,34.394
35.534,34.373
35.471,34.353
35.404,34.332
35.333,34.31
35.261,34.287
35.187,34.263
35.113,34.24
35.039,34.216
34.965,34.191
34.893,34.166
34.819,34.139
34.745,34.11
34.669,34.08
34.591,34.05
34.513,34.019
34.434,33.989
34.355,33.959
34.276,33.93
34.197,33.9
34.12,33.872
34.043,33.844
33.97,33.817
33.899,33.792
33.832,33.768
33.768,33.748
33.705,33.73
33.644,33.715
33.583,33.705
33.523,33.699
33.464,33.7
33.407,33.71
33.352,33.73
33.3,33.762
33.251,33.807
33.207,33.865
33.168,33.938
33.134,34.025
33.104,34.128
33.079,34.248
33.056,34.385
33.035,34.538
33.015,34.707
32.994,34.889
32.971,35.083
32.946,35.289
32.92,35.505
32.891,35.728
32.863,35.955
32.835,36.183
32.809,36.411
32.786,36.634
32.767,36.85
32.752,37.057
32.741,37.253
32.733,37.439
32.727,37.611
32.723,37.769
32.719,37.912
32.715,38.04
32.711,38.153
32.707,38.251
32.703,38.335
32.697,38.405
32.692,38.46
32.686,38.5
32.679,38.527
32.672,38.539
32.665,38.537
32.656,38.522
32.647,38.494
32.638,38.456
32.628,38.408
32.62,38.352
32.615,38.29
32.613,38.224
32.614,38.156
32.616,38.088
32.618,38.021
32.619,37.957
32.617,37.895
32.612,37.835
32.602,37.776
32.587,37.717
32.566,37.658
32.541,37.598
32.512,37.536
32.478,37.472
32.441,37.406
32.401,37.337
32.359,37.266
32.316,37.193
32.273,37.118
32.23,37.044
32.188,36.97
32.148,36.897
32.108,36.827
32.071,36.761
32.035,36.698
32.001,36.638
31.968,36.583
31.936,36.531
31.905,36.483
31.874,36.433
31.844,36.382
31.813,36.329
31.783,36.276
31.754,36.226
31.725,36.18
31.699,36.14
31.676,36.108
31.66,36.084
31.651,36.071
31.655,36.067
31.676,36.072
31.717,36.085
31.784,36.105
31.879,36.131
32.007,36.162
32.171,36.196
32.372,36.234
32.61,36.272
32.883,36.312
33.19,36.353
33.528,36.394
33.893,36.436
34.279,36.479
34.681,36.52
35.09,36.559
35.501,36.594
35.905,36.624
36.296,36.65
36.669,36.67
37.019,36.685
37.342,36.693
37.636,36.696
37.899,36.692
38.13,36.682
38.328,36.666
38.495,36.645
38.633,36.619
38.743,36.589
38.827,36.555
38.889,36.516
38.931,36.475
38.954,36.429
38.963,36.38
38.958,36.328
38.943,36.273
38.917,36.218
38.883,36.161
38.841,36.102
38.791,36.041
38.733,35.977
38.668,35.911
38.595,35.845
38.517,35.778
38.434,35.712
38.345,35.648
38.253,35.586
38.158,35.527
38.06,35.471
37.96,35.419
37.859,35.371
37.755,35.326
37.65,35.284
37.544,35.245
37.436,35.208
37.328,35.172
37.219,35.136
37.11,35.1
37.001,35.063
36.892,35.026
36.783,34.988
36.672,34.948
36.561,34.908
36.448,34.866
36.333,34.822
36.219,34.778
36.104,34.734
35.992,34.693
35.885,34.654
35.783,34.619
35.69,34.585
35.605,34.554
35.531,34.524
35.466,34.495
35.412,34.466
35.367,34.439
35.333,34.412
35.307,34.385
35.291,34.358
35.284,34.331
35.286,34.304
35.297,34.279
35.316,34.255
35.343,34.232
35.376,34.212
35.414,34.192
35.456,34.174
35.5,34.157
35.545,34.142
35.589,34.127
35.632,34.115
35.673,34.104
35.713,34.095
35.75,34.086
35.786,34.077
35.819,34.067
35.849,34.055
35.876,34.043
35.899,34.032
35.917,34.022
35.93,34.014
35.938,34.009
35.942,34.006
35.94,34.004
35.935,34.005
35.927,34.007
35.916,34.012
35.902,34.017
35.885,34.023
35.866,34.028
35.843,34.032
35.816,34.033
35.786,34.032
35.752,34.028
35.714,34.02
35.673,34.008
35.628,33.992
35.579,33.971
35.527,33.946
35.471,33.917
35.413,33.884
35.353,33.848
35.292,33.811
35.229,33.773
35.165,33.736
35.1,33.699
35.034,33.662
34.965,33.626
34.895,33.592
34.823,33.564
34.751,33.545
34.678,33.537
34.604,33.542
34.53,33.565
34.456,33.606
34.382,33.669
34.307,33.752
34.231,33.857
34.154,33.981
34.076,34.125
33.997,34.285
33.918,34.461
33.838,34.651
33.76,34.851
33.682,35.061
33.606,35.277
33.533,35.497
33.462,35.718
33.395,35.937
33.331,36.149
33.271,36.353
33.213,36.546
33.159,36.725
33.106,36.89
33.055,37.04
33.007,37.175
32.962,37.293
32.92,37.394
32.882,37.48
32.849,37.55
32.821,37.607
32.798,37.653
32.78,37.687
32.767,37.713
32.757,37.731
32.75,37.741
32.745,37.746
32.741,37.744
32.736,37.736
32.732,37.723
32.728,37.705
32.723,37.682
32.72,37.653
32.718,37.619
32.717,37.58
32.718,37.535
32.72,37.487
32.723,37.437
32.728,37.385
32.732,37.333
32.736,37.28
32.739,37.228
32.74,37.176
32.739,37.125
32.735,37.074
32.728,37.025
32.717,36.976
32.703,36.928
32.685,36.878
32.664,36.827
32.64,36.773
32.614,36.717
32.587,36.661
32.558,36.603
32.529,36.545
32.499,36.488
32.469,36.431
32.437,36.376
32.405,36.324
32.371,36.276
32.335,36.234
32.296,36.197
32.254,36.167
32.21,36.142
32.163,36.124
32.115,36.111
32.066,36.104
32.017,36.103
31.967,36.106
31.917,36.114
31.866,36.124
31.815,36.135
31.762,36.145
31.709,36.153
31.654,36.16
31.599,36.166
31.543,36.171
31.488,36.177
31.436,36.183
31.387,36.19
31.341,36.197
31.3,36.205
31.265,36.212
31.236,36.22
31.216,36.226
31.206,36.232
31.21,36.235
31.23,36.236
31.269,36.232
31.332,36.224
31.421,36.211
31.54,36.192
31.69,36.169
31.876,36.141
32.098,36.109
32.357,36.072
32.653,36.032
32.984,35.99
33.347,35.946
33.736,35.902
34.147,35.859
34.573,35.814
35.006,35.768
35.441,35.72
35.871,35.67
36.288,35.618
36.687,35.564
37.063,35.508
37.412,35.45
37.73,35.391
38.017,35.33
38.271,35.267
38.492,35.202
38.68,35.136
38.836,35.071
38.961,35.006
39.059,34.941
39.131,34.878
39.18,34.817
39.208,34.756
39.219,34.698
39.213,34.641
39.194,34.588
39.161,34.537
39.117,34.491
39.065,34.447
39.005,34.407
38.939,34.369
38.868,34.332
38.79,34.296
38.705,34.259
38.612,34.221
38.513,34.181
38.406,34.14
38.293,34.098
38.173,34.056
38.048,34.016
37.918,33.977
37.783,33.942
37.645,33.91
37.503,33.881
37.36,33.853
37.214,33.828
37.067,33.803
36.919,33.778
36.77,33.753
36.62,33.728
36.47,33.702
36.318,33.678
36.167,33.656
36.018,33.635
35.871,33.615
35.728,33.596
35.59,33.578
35.458,33.561
35.334,33.545
35.218,33.531
35.111,33.518
35.014,33.506
34.929,33.494
34.857,33.482
34.799,33.47
34.755,33.458
34.725,33.446
34.709,33.436
34.706,33.426
34.717,33.417
34.738,33.409
34.77,33.401
34.811,33.394
34.859,33.388
34.913,33.383
34.971,33.377
35.032,33.371
35.094,33.364
35.156,33.353
35.217,33.34
35.276,33.322
35.331,33.302
35.383,33.278
35.432,33.25
35.479,33.22
35.521,33.186
35.56,33.149
35.593,33.11
35.622,33.068
35.644,33.026
35.661,32.985
35.672,32.944
35.676,32.903
35.674,32.864
35.665,32.825
35.65,32.787
35.628,32.751
35.599,32.717
35.564,32.687
35.523,32.661
35.478,32.643
35.431,32.632
35.382,32.632
35.331,32.642
35.28,32.666
35.227,32.704
35.171,32.758
35.112,32.829
35.048,32.917
34.978,33.024
34.902,33.148
34.821,33.289
34.734,33.448
34.642,33.622
34.547,33.812
34.449,34.016
34.35,34.232
34.251,34.455
34.154,34.685
34.06,34.918
33.967,35.151
33.876,35.384
33.786,35.613
33.699,35.836
33.615,36.051
33.534,36.255
33.457,36.446
33.385,36.624
33.319,36.788
33.259,36.936
33.204,37.069
33.155,37.187
33.112,37.289
33.074,37.377
33.041,37.451
33.012,37.512
32.987,37.561
32.965,37.599
32.944,37.626
32.924,37.643
32.905,37.65
32.885,37.647
32.864,37.635
32.843,37.615
32.821,37.589
32.8,37.557
32.779,37.52
32.76,37.48
32.744,37.435
32.729,37.387
32.716,37.337
32.704,37.285
32.693,37.231
32.683,37.175
32.673,37.119
32.663,37.063
32.652,37.006
32.641,36.949
32.631,36.89
32.621,36.83
32.612,36.769
32.604,36.708
32.596,36.646
32.59,36.584
32.585,36.52
32.58,36.454
32.577,36.387
32.575,36.321
32.573,36.255
32.571,36.192
32.569,36.131
32.566,36.072
32.564,36.017
32.56,35.965
32.557,35.917
32.552,35.873
32.547,35.834
32.541,35.8
32.534,35.773
32.528,35.751
32.52,35.734
32.51,35.724
32.498,35.72
32.482,35.721
32.462,35.729
32.438,35.743
32.41,35.763
32.378,35.788
32.342,35.816
32.304,35.847
32.263,35.88
32.221,35.913
32.177,35.948
32.131,35.982
32.084,36.015
32.035,36.045
31.985,36.072
31.934,36.096
31.883,36.114
31.833,36.129
31.786,36.139
31.743,36.145
31.707,36.147
31.68,36.145
31.664,36.141
31.663,36.134
31.681,36.124
31.72,36.114
31.784,36.104
31.878,36.093
32.003,36.081
32.163,36.067
32.36,36.049
32.593,36.027
32.863,36.001
33.168,35.972
33.505,35.939
33.871,35.902
34.262,35.862
34.671,35.819
35.095,35.772
35.525,35.722
35.954,35.669
36.377,35.614
36.785,35.557
37.174,35.498
37.539,35.437
37.876,35.375
38.182,35.314
38.455,35.252
38.693,35.192
38.898,35.132
39.07,35.075
39.21,35.019
39.32,34.964
39.402,34.911
39.458,34.857
39.49,34.805
39.501,34.755
39.493,34.708
39.469,34.665
39.432,34.627
39.383,34.591
39.325,34.559
39.259,34.529
39.185,34.501
39.103,34.475
39.016,34.449
38.922,34.423
38.822,34.396
38.716,34.369
38.603,34.342
38.483,34.316
38.357,34.291
38.226,34.267
38.09,34.244
37.952,34.222
37.81,34.202
37.667,34.182
37.524,34.162
37.38,34.144
37.235,34.125
37.091,34.107
36.947,34.09
36.802,34.075
36.657,34.061
36.512,34.047
36.367,34.034
36.222,34.021
36.077,34.008
35.933,33.996
35.792,33.985
35.655,33.976
35.523,33.969
35.399,33.962
35.282,33.956
35.174,33.951
35.076,33.947
34.988,33.943
34.913,33.94
34.851,33.936
34.804,33.933
34.772,33.93
34.756,33.926
34.754,33.921
34.765,33.913
34.788,33.904
34.822,33.891
34.866,33.875
34.917,33.857
34.975,33.836
35.038,33.813
35.105,33.786
35.174,33.758
35.245,33.728
35.316,33.697
35.386,33.666
35.454,33.634
35.518,33.6
35.577,33.565
35.63,33.53
35.676,33.494
35.713,33.459
35.743,33.426
35.766,33.396
35.78,33.371
35.788,33.35
35.788,33.335
35.782,33.326
35.77,33.326
35.751,33.336
35.726,33.357
35.696,33.389
35.661,33.436
35.621,33.496
35.577,33.572
35.529,33.665
35.476,33.774
35.419,33.902
35.358,34.047
35.294,34.209
35.227,34.387
35.157,34.578
35.085,34.779
35.01,34.988
34.931,35.204
34.85,35.426
34.766,35.65
34.68,35.875
34.592,36.097
34.502,36.314
34.413,36.523
34.323,36.723
34.234,36.913
34.146,37.091
34.058,37.256
33.97,37.408
33.883,37.546
33.796,37.669
33.71,37.777
33.625,37.871
33.543,37.953
33.463,38.027
33.386,38.096
33.312,38.157
33.241,38.209
33.173,38.247
33.106,38.27
33.042,38.276
32.979,38.265
32.917,38.236
32.858,38.192
32.802,38.133
32.748,38.062
32.697,37.982
32.65,37.895
32.606,37.804
32.566,37.711
32.53,37.618
32.497,37.525
32.469,37.435
32.444,37.347
32.421,37.262
32.401,37.179
32.381,37.098
32.363,37.019
32.345,36.941
32.328,36.864
32.313,36.786
32.298,36.707
32.285,36.626
32.274,36.544
32.265,36.462
32.258,36.38
32.254,36.3
32.252,36.222
32.253,36.147
32.258,36.077
32.266,36.012
32.275,35.952
32.286,35.898
32.298,35.851
32.311,35.809
32.323,35.772
32.334,35.74
32.343,35.712
32.351,35.688
32.357,35.668
32.361,35.654
32.362,35.644
32.362,35.641
32.36,35.642
32.356,35.648
32.352,35.659
32.346,35.674
32.339,35.695
32.33,35.72
32.321,35.75
32.311,35.784
32.299,35.822
32.286,35.861
32.272,35.903
32.255,35.945
32.238,35.987
32.218,36.028
32.196,36.067
32.171,36.105
32.143,36.139
32.112,36.169
32.079,36.194
32.043,36.215
32.006,36.23
31.97,36.24
31.936,36.244
31.903,36.241
31.875,36.229
31.853,36.209
31.839,36.18
31.838,36.143
31.853,36.1
31.889,36.052
31.949,36
32.039,35.945
32.163,35.888
32.325,35.829
32.528,35.77
32.774,35.712
33.062,35.655
33.391,35.599
33.759,35.544
34.159,35.49
34.588,35.436
35.036,35.383
35.498,35.329
35.965,35.274
36.429,35.219
36.883,35.163
37.321,35.108
37.736,35.053
38.125,34.998
38.482,34.943
38.805,34.889
39.092,34.838
39.344,34.79
39.561,34.744
39.743,34.702
39.894,34.663
40.014,34.626
40.107,34.591
40.175,34.558
40.221,34.525
40.247,34.495
40.255,34.465
40.247,34.435
40.226,34.405
40.193,34.374
40.149,34.342
40.098,34.309
40.038,34.276
39.972,34.243
39.899,34.211
39.82,34.18
39.736,34.15
39.647,34.121
39.552,34.091
39.454,34.063
39.352,34.035
39.245,34.009
39.135,33.985
39.021,33.964
38.903,33.947
38.782,33.932
38.658,33.921
38.531,33.913
38.402,33.909
38.271,33.908
38.138,33.91
38.004,33.912
37.868,33.914
37.73,33.915
37.592,33.915
37.452,33.915
37.312,33.915
37.172,33.915
37.032,33.914
36.894,33.912
36.76,33.908
36.63,33.902
36.506,33.894
36.389,33.882
36.281,33.868
36.182,33.852
36.093,33.833
36.017,33.813
35.951,33.79
35.899,33.765
35.858,33.737
35.83,33.706
35.815,33.674
35.811,33.64
35.819,33.606
35.836,33.571
35.864,33.535
35.899,33.5
35.942,33.465
35.991,33.431
36.043,33.4
36.098,33.371
36.154,33.344
36.21,33.321
36.264,33.3
36.317,33.282
36.367,33.267
36.414,33.258
36.457,33.256
36.495,33.262
36.527,33.279
36.554,33.309
36.573,33.355
36.586,33.417
36.591,33.497
36.589,33.596
36.578,33.717
36.56,33.86
36.534,34.024
36.5,34.209
36.458,34.412
36.409,34.632
36.354,34.866
36.294,35.111
36.229,35.365
36.159,35.626
36.086,35.889
36.009,36.152
35.93,36.411
35.85,36.662
35.769,36.904
35.688,37.134
35.607,37.35
35.525,37.551
35.443,37.737
35.361,37.905
35.279,38.056
35.196,38.188
35.111,38.302
35.024,38.399
34.934,38.479
34.843,38.543
34.751,38.592
34.658,38.627
34.565,38.648
34.473,38.657
34.382,38.656
34.292,38.645
34.203,38.626
34.117,38.599
34.034,38.564
33.953,38.522
33.876,38.472
33.803,38.416
33.733,38.355
33.667,38.291
33.606,38.225
33.549,38.157
33.498,38.088
33.453,38.019
33.413,37.951
33.376,37.885
33.343,37.82
33.311,37.758
33.28,37.7
33.251,37.643
33.221,37.589
33.192,37.536
33.163,37.484
33.135,37.432
33.108,37.378
33.082,37.325
33.059,37.27
33.037,37.213
33.018,37.154
33.001,37.092
32.987,37.028
32.975,36.962
32.965,36.896
32.956,36.83
32.95,36.767
32.945,36.706
32.942,36.65
32.94,36.599
32.939,36.553
32.939,36.515
32.94,36.483
32.941,36.459
32.942,36.442
32.943,36.433
32.943,36.429
32.942,36.43
32.94,36.435
32.938,36.442
32.935,36.452
32.932,36.463
32.928,36.475
32.924,36.485
32.918,36.494
32.91,36.501
32.901,36.505
32.89,36.509
32.878,36.513
32.865,36.518
32.851,36.524
32.836,36.529
32.821,36.535
32.804,36.54
32.786,36.545
32.766,36.548
32.746,36.55
32.723,36.55
32.697,36.547
32.67,36.54
32.64,36.528
32.61,36.512
32.579,36.492
32.549,36.466
32.518,36.434
32.487,36.397
32.457,36.355
32.427,36.307
32.397,36.254
32.369,36.197
32.342,36.136
32.318,36.073
32.297,36.009
32.28,35.945
32.269,35.88
32.266,35.816
32.275,35.753
32.3,35.691
32.345,35.629
32.415,35.567
32.514,35.505
32.648,35.445
32.82,35.386
33.034,35.328
33.291,35.272
33.592,35.218
33.935,35.165
34.315,35.112
34.724,35.06
35.155,35.009
35.599,34.958
36.054,34.907
36.514,34.855
36.971,34.803
37.417,34.751
37.848,34.702
38.257,34.656
38.64,34.613
38.992,34.574
39.308,34.537
39.587,34.502
39.827,34.469
40.029,34.438
40.194,34.408
40.322,34.381
40.418,34.355
40.483,34.331
40.522,34.308
40.538,34.287
40.534,34.267
40.512,34.247
40.476,34.228
40.428,34.209
40.371,34.188
40.306,34.167
40.234,34.145
40.157,34.121
40.076,34.096
39.991,34.07
39.904,34.043
39.814,34.017
39.723,33.99
39.629,33.964
39.533,33.937
39.434,33.911
39.334,33.886
39.232,33.863
39.127,33.843
39.021,33.829
38.913,33.819
38.802,33.813
38.689,33.811
38.574,33.812
38.456,33.815
38.336,33.818
38.213,33.821
38.088,33.822
37.961,33.819
37.831,33.814
37.699,33.804
37.566,33.791
37.431,33.774
37.297,33.753
37.164,33.728
37.034,33.699
36.907,33.666
36.785,33.631
36.67,33.593
36.563,33.553
36.465,33.512
36.376,33.471
36.299,33.43
36.234,33.39
36.181,33.35
36.14,33.312
36.112,33.275
36.094,33.24
36.086,33.206
36.089,33.178
36.099,33.155
36.116,33.141
36.139,33.135
36.166,33.139
36.198,33.154
36.234,33.18
36.274,33.22
36.318,33.275
36.363,33.346
36.41,33.436
36.457,33.544
36.503,33.671
36.547,33.818
36.589,33.984
36.626,34.171
36.657,34.375
36.682,34.597
36.699,34.833
36.708,35.081
36.708,35.338
36.702,35.6
36.689,35.865
36.67,36.13
36.646,36.393
36.617,36.653
36.586,36.906
36.55,37.148
36.511,37.376
36.468,37.585
36.421,37.775
36.37,37.946
36.316,38.095
36.258,38.224
36.195,38.334
36.129,38.426
36.059,38.5
35.984,38.559
35.906,38.604
35.824,38.637
35.737,38.659
35.648,38.671
35.555,38.674
35.459,38.668
35.36,38.654
35.257,38.632
35.152,38.602
35.046,38.566
34.939,38.525
34.834,38.48
34.731,38.431
34.629,38.377
34.53,38.319
34.435,38.258
34.346,38.194
34.263,38.127
34.187,38.058
34.118,37.987
34.056,37.914
33.998,37.839
33.944,37.764
33.894,37.69
33.845,37.617
33.798,37.545
33.752,37.475
33.707,37.408
33.664,37.342
33.621,37.275
33.578,37.208
33.535,37.14
33.494,37.073
33.453,37.009
33.416,36.952
33.381,36.901
33.35,36.855
33.323,36.815
33.3,36.778
33.282,36.742
33.268,36.706
33.259,36.67
33.252,36.634
33.247,36.597
33.243,36.558
33.239,36.519
33.237,36.48
33.235,36.443
33.234,36.408
33.235,36.376
33.237,36.349
33.24,36.324
33.244,36.303
33.249,36.285
33.254,36.269
33.26,36.258
33.266,36.251
33.272,36.248
33.277,36.249
33.281,36.252
33.282,36.256
33.282,36.259
33.279,36.263
33.274,36.264
33.267,36.263
33.26,36.259
33.252,36.251
33.242,36.239
33.232,36.224
33.219,36.204
33.206,36.181
33.19,36.154
33.172,36.126
33.15,36.096
33.126,36.065
33.099,36.031
33.071,35.996
33.04,35.958
33.008,35.917
32.974,35.873
32.938,35.828
32.901,35.782
32.862,35.734
32.822,35.683
32.78,35.631
32.737,35.576
32.694,35.519
32.651,35.46
32.609,35.4
32.567,35.339
32.528,35.276
32.491,35.214
32.457,35.15
32.429,35.087
32.41,35.023
32.402,34.961
32.409,34.9
32.434,34.841
32.482,34.785
32.555,34.732
32.658,34.681
32.794,34.633
32.966,34.588
33.176,34.545
33.425,34.505
33.713,34.468
34.037,34.434
34.394,34.401
34.78,34.369
35.189,34.338
35.615,34.309
36.051,34.281
36.49,34.257
36.926,34.234
37.35,34.212
37.759,34.191
38.146,34.17
38.509,34.149
38.843,34.127
39.146,34.105
39.417,34.083
39.655,34.061
39.86,34.038
40.032,34.016
40.173,33.993
40.285,33.969
40.369,33.945
40.428,33.921
40.465,33.898
40.48,33.875
40.477,33.853
40.457,33.83
40.422,33.807
40.373,33.783
40.313,33.761
40.243,33.738
40.166,33.717
40.084,33.696
39.996,33.676
39.905,33.656
39.81,33.636
39.713,33.615
39.612,33.594
39.509,33.574
39.405,33.556
39.298,33.541
39.19,33.529
39.08,33.519
38.969,33.512
38.857,33.508
38.744,33.505
38.63,33.503
38.515,33.502
38.398,33.5
38.278,33.495
38.156,33.487
38.031,33.474
37.905,33.455
37.776,33.432
37.645,33.405
37.512,33.374
37.379,33.338
37.245,33.299
37.112,33.255
36.982,33.208
36.857,33.158
36.739,33.107
36.629,33.056
36.53,33.006
36.441,32.959
36.362,32.917
36.294,32.881
36.238,32.851
36.193,32.829
36.162,32.816
36.142,32.812
36.135,32.819
36.14,32.834
36.154,32.858
36.178,32.889
36.21,32.928
36.249,32.978
36.293,33.04
36.34,33.117
36.388,33.211
36.436,33.325
36.482,33.459
36.525,33.613
36.564,33.788
36.599,33.983
36.629,34.196
36.653,34.427
36.673,34.673
36.687,34.929
36.697,35.194
36.702,35.462
36.703,35.73
36.701,35.996
36.694,36.255
36.684,36.505
36.67,36.744
36.651,36.969
36.629,37.178
36.603,37.371
36.573,37.547
36.539,37.706
36.5,37.848
36.456,37.973
36.406,38.081
36.351,38.172
36.289,38.245
36.223,38.301
36.151,38.341
36.075,38.363
35.995,38.371
35.913,38.365
35.828,38.347
35.742,38.318
35.654,38.28
35.566,38.234
35.478,38.183
35.39,38.128
35.303,38.072
35.216,38.014
35.131,37.957
35.046,37.899
34.961,37.839
34.877,37.778
34.794,37.716
34.712,37.652
34.631,37.587
34.553,37.519
34.476,37.45
34.402,37.378
34.33,37.304
34.259,37.226
34.189,37.146
34.121,37.065
34.053,36.982
33.988,36.898
33.924,36.814
33.862,36.731
33.801,36.648
33.742,36.568
33.685,36.49
33.632,36.417
33.581,36.348
33.534,36.285
33.49,36.226
33.45,36.172
33.413,36.122
33.38,36.076
33.349,36.035
33.32,35.999
33.295,35.968
33.272,35.943
33.253,35.922
33.236,35.906
33.223,35.892
33.214,35.882
33.207,35.874
33.204,35.869
33.203,35.866
33.205,35.865
33.209,35.867
33.215,35.871
33.223,35.877
33.231,35.885
33.239,35.896
33.246,35.911
33.253,35.928
33.259,35.948
33.265,35.969
33.271,35.989
33.276,36.01
33.28,36.028
33.282,36.045
33.283,36.06
33.282,36.071
33.279,36.079
33.273,36.081
33.265,36.079
33.256,36.07
33.245,36.055
33.235,36.036
33.224,36.013
33.213,35.987
33.201,35.959
33.186,35.929
33.17,35.899
33.15,35.868
33.128,35.837
33.103,35.807
33.075,35.777
33.044,35.747
33.01,35.717
32.974,35.686
32.935,35.654
32.894,35.62
32.849,35.584
32.803,35.546
32.755,35.507
32.706,35.465
32.656,35.422
32.606,35.376
32.556,35.327
32.508,35.276
32.461,35.223
32.418,35.167
32.38,35.111
32.347,35.053
32.323,34.995
32.31,34.938
32.312,34.882
32.332,34.827
32.374,34.774
32.441,34.723
32.536,34.674
32.664,34.627
32.828,34.582
33.029,34.538
33.268,34.495
33.546,34.453
33.86,34.412
34.206,34.374
34.581,34.338
34.981,34.304
35.398,34.271
35.827,34.239
36.26,34.208
36.692,34.178
37.115,34.15
37.523,34.124
37.914,34.101
38.281,34.08
38.623,34.06
38.934,34.042
39.215,34.024
39.462,34.007
39.675,33.991
39.854,33.976
40.001,33.959
40.118,33.942
40.205,33.924
40.264,33.904
40.298,33.884
40.308,33.863
40.297,33.842
40.269,33.82
40.225,33.798
40.17,33.774
40.105,33.749
40.032,33.723
39.953,33.695
39.869,33.667
39.78,33.637
39.687,33.609
39.589,33.582
39.486,33.556
39.376,33.53
39.26,33.504
39.137,33.479
39.009,33.453
38.877,33.43
38.742,33.407
38.606,33.387
38.468,33.369
38.33,33.353
38.192,33.338
38.054,33.325
37.916,33.312
37.778,33.299
37.64,33.286
37.502,33.271
37.366,33.256
37.23,33.238
37.095,33.217
36.961,33.193
36.829,33.167
36.7,33.138
36.575,33.107
36.454,33.073
36.341,33.036
36.236,32.996
36.139,32.952
36.053,32.906
35.978,32.857
35.914,32.806
35.862,32.755
35.823,32.704
35.797,32.654
35.784,32.605
35.783,32.558
35.794,32.513
35.815,32.471
35.845,32.436
35.883,32.408
35.929,32.391
35.979,32.386
36.034,32.393
36.092,32.414
36.151,32.45
36.211,32.503
36.27,32.575
36.328,32.668
36.383,32.781
36.436,32.917
36.485,33.075
36.531,33.255
36.574,33.456
36.611,33.679
36.642,33.92
36.666,34.178
36.683,34.449
36.693,34.731
36.694,35.019
36.688,35.311
36.674,35.602
36.653,35.889
36.624,36.168
36.588,36.438
36.546,36.695
36.498,36.936
36.444,37.16
36.386,37.364
36.322,37.545
36.256,37.705
36.187,37.844
36.116,37.96
36.043,38.055
35.969,38.129
35.894,38.183
35.818,38.22
35.742,38.241
35.664,38.25
35.586,38.249
35.506,38.241
35.426,38.228
35.344,38.21
35.261,38.189
35.177,38.163
35.093,38.134
35.009,38.1
34.925,38.062
34.844,38.018
34.763,37.968
34.684,37.911
34.605,37.847
34.526,37.777
34.449,37.7
34.371,37.62
34.295,37.537
34.22,37.453
34.147,37.37
34.076,37.29
34.008,37.212
33.944,37.138
33.883,37.067
33.825,36.998
33.772,36.931
33.723,36.863
33.677,36.793
33.634,36.719
33.594,36.64
33.557,36.558
33.521,36.472
33.486,36.387
33.454,36.301
33.423,36.218
33.395,36.138
33.369,36.062
33.347,35.991
33.327,35.928
33.311,35.873
33.298,35.827
33.287,35.791
33.28,35.764
33.275,35.745
33.272,35.735
33.272,35.732
33.276,35.736
33.284,35.746
33.294,35.762
33.306,35.782
33.319,35.806
33.332,35.832
33.344,35.858
33.356,35.885
33.367,35.911
33.377,35.938
33.385,35.967
33.391,35.996
33.395,36.025
33.397,36.053
33.398,36.081
33.396,36.107
33.393,36.131
33.389,36.154
33.383,36.174
33.375,36.191
33.365,36.203
33.352,36.211
33.338,36.215
33.321,36.213
33.302,36.206
33.28,36.195
33.257,36.178
33.231,36.156
33.204,36.129
33.176,36.096
33.147,36.056
33.116,36.011
33.082,35.96
33.046,35.906
33.006,35.849
32.963,35.79
32.916,35.73
32.868,35.668
32.817,35.606
32.766,35.543
32.715,35.481
32.668,35.421
32.626,35.362
32.592,35.306
32.569,35.253
32.56,35.204
32.569,35.158
32.6,35.115
32.658,35.075
32.745,35.036
32.866,34.998
33.022,34.961
33.216,34.923
33.447,34.885
33.714,34.847
34.016,34.807
34.35,34.766
34.711,34.725
35.094,34.683
35.494,34.639
35.904,34.594
36.318,34.547
36.729,34.499
37.131,34.448
37.519,34.398
37.889,34.347
38.235,34.296
38.555,34.245
38.847,34.195
39.11,34.146
39.342,34.099
39.545,34.053
39.719,34.009
39.865,33.969
39.984,33.934
40.078,33.901
40.149,33.872
40.198,33.846
40.226,33.822
40.237,33.799
40.232,33.778
40.212,33.758
40.178,33.74
40.131,33.724
40.073,33.709
40.005,33.694
39.927,33.68
39.84,33.665
39.746,33.651
39.645,33.637
39.538,33.624
39.425,33.611
39.307,33.6
39.184,33.589
39.058,33.579
38.929,33.571
38.797,33.563
38.663,33.557
38.526,33.552
38.387,33.546
38.247,33.538
38.105,33.529
37.961,33.517
37.816,33.503
37.67,33.485
37.523,33.465
37.376,33.442
37.23,33.417
37.085,33.388
36.941,33.358
36.799,33.325
36.661,33.291
36.527,33.257
36.398,33.223
36.277,33.189
36.164,33.156
36.061,33.122
35.969,33.089
35.89,33.055
35.825,33.021
35.775,32.988
35.739,32.955
35.717,32.925
35.71,32.896
35.715,32.868
35.733,32.84
35.761,32.813
35.799,32.785
35.845,32.758
35.897,32.731
35.955,32.704
36.016,32.677
36.078,32.651
36.141,32.627
36.202,32.604
36.262,32.586
36.318,32.573
36.369,32.568
36.416,32.574
36.457,32.593
36.492,32.627
36.521,32.68
36.542,32.754
36.556,32.85
36.563,32.97
36.564,33.115
36.558,33.283
36.546,33.473
36.528,33.683
36.504,33.91
36.475,34.153
36.441,34.411
36.4,34.68
36.354,34.957
36.302,35.24
36.245,35.525
36.183,35.808
36.116,36.086
36.046,36.355
35.972,36.614
35.895,36.86
35.816,37.09
35.736,37.304
35.654,37.498
35.572,37.673
35.49,37.827
35.409,37.961
35.328,38.073
35.248,38.166
35.17,38.239
35.093,38.294
35.017,38.333
34.941,38.358
34.866,38.371
34.79,38.374
34.715,38.368
34.639,38.353
34.564,38.33
34.489,38.299
34.414,38.26
34.341,38.212
34.269,38.151
34.198,38.075
34.13,37.984
34.063,37.88
33.998,37.768
33.936,37.653
33.874,37.538
33.814,37.427
33.755,37.324
33.701,37.229
33.651,37.145
33.605,37.072
33.564,37.01
33.526,36.955
33.49,36.907
33.455,36.864
33.422,36.821
33.389,36.78
33.358,36.736
33.327,36.69
33.296,36.64
33.268,36.585
33.241,36.524
33.217,36.459
33.192,36.389
33.165,36.317
33.138,36.243
33.111,36.17
33.085,36.098
33.057,36.029
33.027,35.964
32.999,35.904
32.975,35.85
32.956,35.805
32.945,35.769
32.94,35.742
32.942,35.725
32.95,35.717
32.963,35.717
32.983,35.725
33.007,35.74
33.035,35.762
33.065,35.79
33.094,35.823
33.122,35.859
33.146,35.898
33.165,35.938
33.179,35.978
33.188,36.017
33.189,36.055
33.184,36.091
33.174,36.125
33.16,36.156
33.144,36.183
33.126,36.205
33.107,36.222
33.087,36.234
33.066,36.241
33.044,36.243
33.019,36.24
32.99,36.232
32.955,36.217
32.914,36.197
32.869,36.172
32.819,36.143
32.768,36.109
32.714,36.072
32.661,36.033
32.609,35.992
32.56,35.949
32.516,35.904
32.477,35.859
32.446,35.814
32.425,35.77
32.417,35.727
32.426,35.683
32.456,35.639
32.51,35.591
32.592,35.541
32.704,35.487
32.85,35.43
33.032,35.37
33.25,35.308
33.507,35.243
33.8,35.177
34.129,35.109
34.489,35.041
34.875,34.974
35.283,34.908
35.705,34.846
36.136,34.787
36.568,34.731
36.995,34.679
37.41,34.628
37.81,34.579
38.187,34.532
38.539,34.485
38.863,34.44
39.158,34.394
39.42,34.348
39.65,34.302
39.848,34.256
40.015,34.21
40.152,34.166
40.26,34.125
40.342,34.088
40.401,34.055
40.438,34.026
40.458,34.001
40.462,33.979
40.452,33.958
40.43,33.94
40.396,33.923
40.354,33.906
40.303,33.89
40.245,33.873
40.18,33.856
40.109,33.836
40.033,33.816
39.952,33.795
39.865,33.774
39.774,33.753
39.679,33.733
39.58,33.713
39.477,33.694
39.369,33.676
39.257,33.658
39.14,33.641
39.018,33.624
38.891,33.607
38.759,33.591
38.622,33.574
38.48,33.556
38.335,33.538
38.187,33.52
38.038,33.502
37.889,33.484
37.739,33.468
37.592,33.453
37.448,33.439
37.309,33.425
37.175,33.409
37.047,33.391
36.925,33.371
36.811,33.349
36.704,33.325
36.606,33.299
36.516,33.271
36.436,33.24
36.365,33.207
36.305,33.17
36.256,33.131
36.218,33.091
36.19,33.05
36.173,33.008
36.166,32.967
36.168,32.927
36.18,32.889
36.2,32.853
36.228,32.821
36.261,32.792
36.299,32.769
36.341,32.751
36.385,32.741
36.43,32.738
36.474,32.746
36.517,32.766
36.558,32.799
36.597,32.849
36.633,32.917
36.665,33.004
36.694,33.111
36.719,33.238
36.74,33.385
36.757,33.552
36.767,33.741
36.769,33.949
36.763,34.177
36.749,34.422
36.727,34.682
36.697,34.955
36.662,35.238
36.62,35.528
36.574,35.82
36.525,36.107
36.471,36.385
36.413,36.648
36.35,36.894
36.281,37.118
36.207,37.32
36.127,37.499
36.042,37.654
35.953,37.786
35.86,37.897
35.763,37.987
35.664,38.058
35.565,38.111
35.465,38.146
35.366,38.167
35.269,38.175
35.174,38.172
35.081,38.16
34.99,38.138
34.902,38.109
34.816,38.074
34.733,38.033
34.652,37.986
34.572,37.936
34.494,37.881
34.419,37.822
34.346,37.759
34.276,37.692
34.21,37.622
34.146,37.549
34.085,37.474
34.027,37.397
33.971,37.32
33.917,37.241
33.865,37.161
33.815,37.078
33.766,36.993
33.719,36.906
33.672,36.818
33.626,36.729
33.581,36.64
33.537,36.551
33.497,36.463
33.458,36.375
33.423,36.289
33.39,36.204
33.36,36.122
33.332,36.043
33.305,35.967
33.278,35.896
33.252,35.828
33.226,35.766
33.202,35.709
33.178,35.657
33.155,35.611
33.136,35.572
33.121,35.54
33.11,35.515
33.101,35.496
33.094,35.483
33.088,35.474
33.081,35.472
33.072,35.476
33.062,35.488
33.049,35.506
33.033,35.531
33.016,35.562
32.996,35.599
32.977,35.639
32.958,35.683
32.941,35.73
32.925,35.778
32.913,35.826
32.903,35.873
32.897,35.918
32.895,35.961
32.896,36.001
32.901,36.037
32.907,36.068
32.915,36.095
32.921,36.117
32.925,36.133
32.924,36.143
32.92,36.147
32.91,36.145
32.894,36.14
32.874,36.132
32.848,36.122
32.816,36.111
32.78,36.099
32.74,36.084
32.696,36.066
32.651,36.045
32.604,36.02
32.558,35.989
32.513,35.954
32.47,35.915
32.429,35.87
32.393,35.821
32.361,35.767
32.336,35.708
32.32,35.645
32.316,35.578
32.327,35.508
32.357,35.435
32.409,35.359
32.486,35.28
32.592,35.2
32.729,35.119
32.9,35.04
33.106,34.965
33.348,34.894
33.625,34.826
33.935,34.763
34.275,34.703
34.643,34.647
35.033,34.594
35.44,34.546
35.858,34.5
36.284,34.458
36.709,34.417
37.128,34.377
37.536,34.338
37.927,34.298
38.295,34.258
38.636,34.216
38.948,34.174
39.228,34.13
39.475,34.087
39.688,34.043
39.868,34
40.016,33.957
40.133,33.916
40.224,33.875
40.289,33.835
40.333,33.797
40.358,33.76
40.367,33.724
40.361,33.689
40.342,33.656
40.311,33.625
40.27,33.598
40.221,33.576
40.165,33.56
40.102,33.548
40.034,33.539
39.959,33.532
39.879,33.526
39.793,33.519
39.702,33.512
39.606,33.504
39.504,33.495
39.397,33.485
39.285,33.475
39.168,33.464
39.046,33.453
38.92,33.439
38.791,33.423
38.659,33.403
38.524,33.377
38.388,33.345
38.25,33.309
38.111,33.27
37.97,33.229
37.828,33.19
37.685,33.154
37.541,33.121
37.397,33.093
37.253,33.069
37.11,33.048
36.972,33.028
36.837,33.01
36.709,32.991
36.588,32.973
36.474,32.955
36.37,32.938
36.277,32.921
36.196,32.902
36.129,32.882
36.074,32.86
36.033,32.838
36.005,32.815
35.989,32.795
35.984,32.776
35.989,32.763
36.003,32.755
36.023,32.756
36.048,32.768
36.077,32.794
36.109,32.836
36.143,32.897
36.179,32.977
36.217,33.08
36.257,33.204
36.296,33.351
36.336,33.52
36.375,33.71
36.411,33.92
36.444,34.149
36.474,34.393
36.499,34.649
36.521,34.914
36.537,35.184
36.548,35.456
36.553,35.728
36.551,35.996
36.542,36.258
36.525,36.512
36.5,36.754
36.468,36.982
36.429,37.196
36.383,37.394
36.333,37.576
36.277,37.742
36.218,37.89
36.154,38.021
36.085,38.134
36.012,38.229
35.935,38.307
35.853,38.368
35.768,38.413
35.681,38.444
35.593,38.46
35.503,38.464
35.413,38.456
35.322,38.436
35.232,38.406
35.141,38.368
35.051,38.324
34.961,38.277
34.872,38.227
34.784,38.176
34.697,38.122
34.61,38.066
34.524,38.008
34.439,37.948
34.354,37.886
34.27,37.821
34.186,37.755
34.105,37.686
34.026,37.613
33.951,37.539
33.88,37.461
33.813,37.382
33.751,37.301
33.694,37.221
33.641,37.141
33.593,37.06
33.548,36.98
33.507,36.9
33.468,36.819
33.432,36.737
33.397,36.656
33.363,36.576
33.331,36.498
33.301,36.424
33.274,36.354
33.25,36.289
33.228,36.231
33.209,36.181
33.191,36.14
33.172,36.108
33.153,36.084
33.132,36.067
33.109,36.059
33.083,36.057
33.054,36.061
33.023,36.07
32.992,36.085
32.96,36.104
32.931,36.125
32.905,36.147
32.884,36.171
32.867,36.196
32.855,36.222
32.845,36.25
32.838,36.28
32.833,36.31
32.828,36.341
32.825,36.371
32.822,36.402
32.82,36.431
32.818,36.459
32.817,36.486
32.815,36.509
32.813,36.529
32.81,36.543
32.805,36.552
32.8,36.553
32.793,36.546
32.785,36.533
32.776,36.513
32.767,36.485
32.758,36.45
32.749,36.409
32.739,36.36
32.729,36.306
32.718,36.247
32.704,36.185
32.688,36.121
32.668,36.056
32.645,35.989
32.619,35.923
32.59,35.856
32.558,35.79
32.525,35.724
32.491,35.658
32.456,35.593
32.419,35.528
32.382,35.461
32.343,35.39
32.303,35.31
32.263,35.218
32.22,35.115
32.176,35.005
32.131,34.892
32.084,34.781
32.038,34.676
31.993,34.58
31.953,34.495
31.921,34.422
31.899,34.362
31.891,34.314
31.9,34.277
31.93,34.248
31.983,34.226
32.062,34.208
32.172,34.192
32.315,34.177
32.494,34.162
32.712,34.145
32.97,34.128
33.27,34.11
33.609,34.089
33.985,34.064
34.391,34.037
34.823,34.007
35.271,33.974
35.729,33.941
36.19,33.906
36.646,33.872
37.092,33.837
37.52,33.801
37.926,33.766
38.305,33.731
38.653,33.697
38.967,33.663
39.247,33.63
39.49,33.598
39.699,33.567
39.874,33.537
40.017,33.509
40.131,33.482
40.218,33.457
40.28,33.432
40.32,33.408
40.342,33.385
40.347,33.361
40.339,33.337
40.318,33.311
40.286,33.284
40.244,33.258
40.193,33.232
40.134,33.208
40.067,33.186
39.994,33.166
39.914,33.147
39.827,33.129
39.734,33.113
39.635,33.1
39.529,33.087
39.417,33.077
39.299,33.067
39.178,33.056
39.053,33.044
38.926,33.03
38.796,33.014
38.664,32.997
38.531,32.977
38.396,32.956
38.258,32.933
38.118,32.908
37.976,32.883
37.832,32.856
37.687,32.828
37.541,32.799
37.394,32.77
37.247,32.742
37.102,32.714
36.959,32.687
36.821,32.662
36.688,32.639
36.563,32.621
36.446,32.609
36.338,32.606
36.241,32.615
36.155,32.636
36.081,32.673
36.019,32.726
35.969,32.797
35.931,32.888
35.904,32.999
35.889,33.133
35.884,33.289
35.889,33.468
35.902,33.667
35.924,33.886
35.952,34.123
35.986,34.374
36.024,34.638
36.064,34.912
36.105,35.193
36.146,35.477
36.187,35.761
36.228,36.041
36.267,36.315
36.304,36.58
36.339,36.832
36.369,37.071
36.395,37.293
36.416,37.496
36.431,37.679
36.44,37.841
36.443,37.981
36.44,38.1
36.43,38.199
36.414,38.279
36.392,38.342
36.364,38.389
36.33,38.421
36.29,38.44
36.243,38.447
36.19,38.446
36.133,38.436
36.071,38.419
36.005,38.398
35.937,38.371
35.866,38.339
35.793,38.303
35.718,38.263
35.64,38.218
35.56,38.17
35.478,38.12
35.396,38.066
35.313,38.009
35.232,37.948
35.152,37.884
35.073,37.817
34.995,37.748
34.917,37.679
34.839,37.608
34.761,37.534
34.682,37.459
34.602,37.382
34.523,37.302
34.443,37.22
34.364,37.136
34.286,37.051
34.21,36.964
34.136,36.877
34.065,36.789
33.996,36.702
33.928,36.615
33.861,36.531
33.794,36.451
33.725,36.376
33.655,36.306
33.585,36.242
33.516,36.183
33.449,36.131
33.385,36.088
33.325,36.055
33.269,36.033
33.216,36.023
33.167,36.024
33.12,36.036
33.078,36.059
33.038,36.091
33.002,36.133
32.968,36.182
32.938,36.237
32.911,36.295
32.887,36.355
32.867,36.413
32.848,36.468
32.832,36.52
32.816,36.567
32.801,36.612
32.787,36.653
32.773,36.69
32.759,36.723
32.746,36.749
32.734,36.767
32.723,36.777
32.712,36.78
32.702,36.775
32.694,36.765
32.689,36.748
32.686,36.727
32.686,36.702
32.687,36.673
32.689,36.64
32.692,36.605
32.695,36.566
32.698,36.524
32.7,36.479
32.702,36.43
32.704,36.379
32.704,36.325
32.702,36.27
32.7,36.212
32.695,36.154
32.689,36.095
32.681,36.035
32.671,35.974
32.66,35.909
32.648,35.842
32.634,35.773
32.62,35.704
32.606,35.635
32.59,35.566
32.574,35.498
32.556,35.431
32.535,35.364
32.51,35.298
32.482,35.232
32.451,35.167
32.416,35.102
32.378,35.036
32.338,34.97
32.296,34.904
32.252,34.838
32.208,34.772
32.162,34.707
32.115,34.643
32.065,34.581
32.014,34.519
31.962,34.46
31.908,34.403
31.854,34.348
31.8,34.295
31.749,34.244
31.702,34.198
31.663,34.156
31.631,34.12
31.609,34.087
31.599,34.058
31.604,34.031
31.626,34.006
31.669,33.981
31.736,33.957
31.831,33.933
31.959,33.909
32.123,33.884
32.324,33.859
32.565,33.834
32.845,33.809
33.164,33.787
33.519,33.768
33.909,33.753
34.328,33.741
34.772,33.732
35.233,33.726
35.704,33.723
36.178,33.722
36.647,33.723
37.105,33.725
37.546,33.727
37.962,33.729
38.351,33.73
38.708,33.73
39.03,33.728
39.318,33.724
39.57,33.717
39.787,33.708
39.97,33.698
40.121,33.687
40.24,33.672
40.331,33.654
40.395,33.631
40.436,33.603
40.455,33.571
40.454,33.536
40.436,33.498
40.401,33.458
40.353,33.418
40.291,33.377
40.219,33.337
40.137,33.3
40.046,33.265
39.949,33.236
39.846,33.212
39.737,33.195
39.622,33.186
39.502,33.186
39.378,33.197
39.25,33.22
39.12,33.258
38.989,33.311
38.856,33.382
38.722,33.472
38.588,33.583
38.453,33.714
38.318,33.865
38.182,34.037
38.047,34.23
37.911,34.442
37.775,34.674
37.639,34.922
37.503,35.182
37.368,35.453
37.233,35.728
37.099,36.007
36.965,36.287
36.833,36.564
36.703,36.835
36.576,37.096
36.454,37.346
36.338,37.581
36.229,37.799
36.128,37.998
36.034,38.178
35.948,38.337
35.87,38.477
35.803,38.596
35.747,38.694
35.704,38.772
35.674,38.831
35.658,38.87
35.655,38.892
35.663,38.898
35.682,38.889
35.71,38.868
35.747,38.836
35.79,38.795
35.839,38.747
35.892,38.692
35.948,38.633
36.004,38.573
36.061,38.513
36.118,38.454
36.173,38.395
36.226,38.338
36.273,38.278
36.314,38.217
36.348,38.151
36.373,38.08
36.391,38.002
36.402,37.918
36.405,37.827
36.4,37.731
36.386,37.631
36.361,37.529
36.327,37.426
36.284,37.324
36.233,37.224
36.176,37.125
36.114,37.029
36.048,36.935
35.981,36.845
35.913,36.76
35.845,36.679
35.776,36.604
35.707,36.533
35.636,36.466
35.564,36.404
35.49,36.345
35.413,36.292
35.335,36.245
35.255,36.206
35.172,36.174
35.086,36.15
34.999,36.132
34.909,36.121
34.816,36.117
34.72,36.119
34.623,36.128
34.525,36.142
34.426,36.161
34.327,36.186
34.23,36.215
34.136,36.249
34.044,36.288
33.954,36.329
33.867,36.373
33.783,36.417
