Trial 1:0back,Trial 6:0back
33.515,35.084
33.498,34.998
33.485,34.914
33.479,34.832
33.48,34.752
33.492,34.675
33.515,34.603
33.551,34.535
33.602,34.473
33.669,34.417
33.752,34.368
33.852,34.325
33.968,34.289
34.1,34.261
34.245,34.239
34.403,34.224
34.572,34.217
34.748,34.216
34.93,34.222
35.114,34.234
35.298,34.251
35.479,34.274
35.655,34.301
35.824,34.332
35.982,34.367
36.129,34.403
36.263,34.442
36.383,34.48
36.488,34.519
36.578,34.557
36.654,34.594
36.714,34.63
36.759,34.664
36.79,34.696
36.809,34.725
36.816,34.752
36.811,34.775
36.798,34.793
36.776,34.807
36.747,34.817
36.712,34.822
36.671,34.822
36.626,34.818
36.577,34.81
36.524,34.797
36.469,34.781
36.412,34.76
36.353,34.736
36.292,34.709
36.231,34.679
36.17,34.646
36.109,34.611
36.048,34.574
35.988,34.536
35.928,34.495
35.869,34.453
35.811,34.411
35.752,34.367
35.694,34.323
35.637,34.279
35.58,34.236
35.525,34.193
35.471,34.15
35.418,34.109
35.368,34.068
35.319,34.027
35.273,33.988
35.229,33.948
35.188,33.91
35.149,33.873
35.113,33.837
35.081,33.803
35.051,33.77
35.026,33.74
35.004,33.712
34.987,33.686
34.974,33.662
34.966,33.64
34.961,33.619
34.961,33.6
34.965,33.582
34.972,33.566
34.982,33.55
34.994,33.535
35.009,33.52
35.025,33.506
35.042,33.491
35.061,33.475
35.079,33.459
35.098,33.442
35.115,33.424
35.132,33.407
35.147,33.389
35.16,33.372
35.171,33.355
35.18,33.338
35.187,33.321
35.192,33.303
35.194,33.285
35.194,33.267
35.191,33.249
35.187,33.23
35.18,33.211
35.17,33.192
35.159,33.173
35.145,33.154
35.129,33.136
35.11,33.12
35.09,33.105
35.068,33.093
35.044,33.085
35.019,33.082
34.993,33.087
34.966,33.102
34.937,33.129
34.908,33.171
34.879,33.231
34.849,33.31
34.819,33.412
34.788,33.536
34.757,33.686
34.725,33.861
34.693,34.062
34.661,34.287
34.63,34.535
34.599,34.804
34.57,35.091
34.541,35.394
34.514,35.708
34.487,36.029
34.461,36.354
34.436,36.678
34.412,36.995
34.388,37.302
34.365,37.594
34.344,37.867
34.323,38.118
34.303,38.345
34.283,38.545
34.264,38.718
34.246,38.863
34.227,38.979
34.209,39.068
34.191,39.13
34.173,39.167
34.154,39.181
34.136,39.174
34.117,39.147
34.098,39.104
34.078,39.046
34.059,38.975
34.04,38.893
34.021,38.801
34.002,38.702
33.983,38.598
33.964,38.489
33.946,38.377
33.928,38.264
33.91,38.15
33.892,38.035
33.875,37.921
33.859,37.808
33.846,37.696
33.836,37.586
33.831,37.478
33.832,37.372
33.841,37.268
33.859,37.167
33.888,37.069
33.929,36.972
33.984,36.877
34.054,36.784
34.139,36.691
34.24,36.599
34.358,36.507
34.492,36.416
34.64,36.326
34.801,36.237
34.974,36.15
35.156,36.064
35.345,35.981
35.537,35.902
35.73,35.827
35.921,35.758
36.107,35.694
36.286,35.637
36.455,35.587
36.612,35.544
36.755,35.508
36.883,35.48
36.996,35.459
37.092,35.446
37.171,35.44
37.235,35.441
37.282,35.449
37.315,35.462
37.333,35.479
37.339,35.501
37.333,35.526
37.317,35.552
37.291,35.581
37.256,35.61
37.214,35.639
37.167,35.669
37.114,35.697
37.057,35.724
36.997,35.749
36.935,35.771
36.871,35.789
36.807,35.803
36.743,35.812
36.679,35.816
36.616,35.814
36.553,35.807
36.492,35.795
36.43,35.777
36.369,35.755
36.308,35.728
36.248,35.697
36.187,35.662
36.127,35.624
36.067,35.583
36.008,35.539
35.949,35.493
35.892,35.445
35.836,35.395
35.782,35.344
35.729,35.291
35.679,35.237
35.631,35.182
35.586,35.127
35.544,35.071
35.506,35.016
35.472,34.96
35.443,34.906
35.417,34.852
35.395,34.8
35.377,34.748
35.362,34.698
35.352,34.649
35.345,34.6
35.341,34.553
35.341,34.508
35.345,34.463
35.352,34.42
35.361,34.379
35.373,34.339
35.386,34.301
35.401,34.264
35.417,34.229
35.434,34.194
35.452,34.161
35.469,34.13
35.485,34.099
35.499,34.069
35.511,34.04
35.52,34.012
35.527,33.985
35.53,33.959
35.53,33.933
35.527,33.908
35.52,33.884
35.51,33.86
35.497,33.837
35.481,33.814
35.462,33.793
35.44,33.771
35.416,33.751
35.391,33.73
35.364,33.711
35.335,33.691
35.305,33.672
35.273,33.653
35.24,33.634
35.207,33.614
35.172,33.593
35.137,33.571
35.101,33.548
35.065,33.524
35.029,33.5
34.993,33.476
34.958,33.453
34.922,33.43
34.888,33.411
34.854,33.396
34.819,33.389
34.785,33.39
34.752,33.403
34.719,33.43
34.685,33.474
34.652,33.536
34.62,33.621
34.587,33.73
34.555,33.863
34.522,34.024
34.489,34.21
34.455,34.421
34.421,34.657
34.387,34.914
34.352,35.19
34.318,35.481
34.285,35.784
34.251,36.095
34.218,36.408
34.185,36.72
34.152,37.026
34.118,37.323
34.084,37.606
34.051,37.872
34.016,38.119
33.982,38.343
33.947,38.543
33.913,38.718
33.88,38.865
33.847,38.986
33.816,39.079
33.787,39.146
33.76,39.188
33.735,39.205
33.713,39.2
33.694,39.174
33.68,39.129
33.67,39.069
33.666,38.994
33.669,38.909
33.679,38.813
33.698,38.709
33.728,38.599
33.769,38.485
33.823,38.367
33.89,38.247
33.972,38.126
34.068,38.005
34.179,37.884
34.304,37.765
34.443,37.647
34.595,37.531
34.758,37.417
34.929,37.306
35.107,37.197
35.289,37.091
35.473,36.987
35.654,36.886
35.833,36.787
36.005,36.69
36.169,36.594
36.322,36.499
36.463,36.406
36.59,36.314
36.701,36.224
36.797,36.135
36.877,36.047
36.94,35.963
36.987,35.881
37.018,35.802
37.034,35.728
37.036,35.659
37.026,35.596
37.005,35.539
36.973,35.488
36.933,35.445
36.885,35.408
36.831,35.378
36.772,35.355
36.71,35.339
36.645,35.329
36.578,35.325
36.51,35.327
36.443,35.334
36.375,35.346
36.308,35.362
36.242,35.383
36.177,35.406
36.113,35.432
36.05,35.459
35.988,35.487
35.926,35.515
35.864,35.542
35.803,35.567
35.742,35.59
35.68,35.611
35.618,35.628
35.556,35.641
35.493,35.649
35.432,35.652
35.371,35.65
35.312,35.643
35.254,35.629
35.199,35.61
35.148,35.586
35.1,35.556
35.056,35.522
35.017,35.484
34.983,35.442
34.954,35.397
34.93,35.349
34.912,35.298
34.899,35.245
34.892,35.19
34.889,35.135
34.892,35.078
34.9,35.021
34.912,34.963
34.928,34.905
34.947,34.848
34.968,34.792
34.991,34.736
35.014,34.682
35.037,34.629
35.059,34.577
35.08,34.526
35.1,34.476
35.117,34.428
35.132,34.382
35.144,34.337
35.153,34.294
35.159,34.252
35.162,34.211
35.161,34.171
35.156,34.131
35.148,34.092
35.136,34.054
35.121,34.018
35.103,33.984
35.082,33.952
35.058,33.922
35.033,33.894
35.007,33.867
34.979,33.842
34.951,33.817
34.921,33.792
34.892,33.768
34.862,33.744
34.832,33.721
34.802,33.698
34.772,33.675
34.742,33.653
34.712,33.631
34.682,33.61
34.652,33.59
34.622,33.57
34.591,33.552
34.56,33.533
34.528,33.515
34.496,33.497
34.463,33.478
34.43,33.459
34.397,33.439
34.363,33.418
34.329,33.396
34.295,33.374
34.261,33.352
34.227,33.33
34.193,33.308
34.159,33.286
34.125,33.264
34.092,33.242
34.059,33.221
34.027,33.2
33.996,33.18
33.967,33.162
33.938,33.146
33.911,33.135
33.885,33.129
33.861,33.131
33.838,33.143
33.817,33.167
33.797,33.206
33.779,33.263
33.761,33.34
33.744,33.439
33.726,33.563
33.709,33.713
33.69,33.888
33.671,34.089
33.651,34.316
33.63,34.565
33.61,34.835
33.59,35.123
33.573,35.425
33.558,35.736
33.547,36.053
33.542,36.37
33.546,36.683
33.56,36.987
33.585,37.279
33.625,37.554
33.68,37.809
33.751,38.041
33.84,38.248
33.946,38.429
34.068,38.582
34.206,38.709
34.359,38.807
34.524,38.88
34.699,38.927
34.883,38.951
35.072,38.952
35.264,38.933
35.454,38.895
35.641,38.841
35.821,38.772
35.993,38.689
36.152,38.596
36.299,38.493
36.431,38.383
36.547,38.266
36.646,38.146
36.728,38.023
36.792,37.899
36.839,37.774
36.87,37.651
36.885,37.53
36.886,37.412
36.874,37.297
36.851,37.185
36.818,37.076
36.777,36.971
36.73,36.87
36.678,36.772
36.623,36.676
36.566,36.581
36.507,36.488
36.448,36.396
36.387,36.306
36.326,36.216
36.265,36.128
36.202,36.04
36.137,35.955
36.071,35.871
36.004,35.788
35.934,35.709
35.864,35.633
35.792,35.56
35.718,35.492
35.644,35.43
35.569,35.373
35.494,35.322
35.418,35.279
35.343,35.244
35.269,35.217
35.196,35.197
35.126,35.184
35.059,35.179
34.995,35.179
34.936,35.186
34.881,35.197
34.831,35.213
34.786,35.233
34.746,35.256
34.711,35.281
34.681,35.309
34.655,35.337
34.634,35.366
34.618,35.395
34.607,35.423
34.601,35.45
34.599,35.475
34.601,35.498
34.606,35.517
34.613,35.531
34.623,35.541
34.635,35.545
34.647,35.545
34.661,35.539
34.675,35.527
34.689,35.51
34.702,35.488
34.715,35.46
34.726,35.428
34.735,35.392
34.742,35.351
34.747,35.308
34.749,35.261
34.749,35.212
34.745,35.16
34.739,35.107
34.729,35.052
34.716,34.996
34.7,34.94
34.681,34.885
34.659,34.829
34.636,34.775
34.61,34.721
34.583,34.668
34.555,34.616
34.525,34.563
34.495,34.512
34.465,34.46
34.434,34.409
34.403,34.359
34.373,34.31
34.342,34.263
34.312,34.218
34.281,34.175
34.249,34.135
34.217,34.096
34.185,34.059
34.153,34.023
34.121,33.99
34.089,33.958
34.058,33.929
34.028,33.9
34,33.874
33.975,33.848
33.951,33.824
33.929,33.8
33.908,33.776
33.889,33.752
33.872,33.728
33.856,33.704
33.841,33.68
33.827,33.656
33.813,33.632
33.798,33.607
33.782,33.584
33.765,33.56
33.747,33.538
33.728,33.516
33.708,33.496
33.687,33.477
33.664,33.46
33.64,33.443
33.615,33.428
33.589,33.414
33.562,33.4
33.535,33.387
33.507,33.375
33.48,33.362
33.454,33.349
33.428,33.335
33.402,33.32
33.378,33.304
33.356,33.288
33.335,33.27
33.317,33.251
33.301,33.23
33.289,33.209
33.282,33.186
33.28,33.162
33.286,33.138
33.3,33.115
33.324,33.093
33.36,33.075
33.408,33.061
33.471,33.053
33.55,33.054
33.644,33.066
33.754,33.092
33.88,33.134
34.022,33.195
34.178,33.277
34.347,33.383
34.527,33.514
34.714,33.671
34.908,33.854
35.104,34.063
35.299,34.295
35.492,34.55
35.678,34.824
35.854,35.114
36.02,35.416
36.173,35.727
36.311,36.04
36.433,36.352
36.538,36.658
36.626,36.954
36.696,37.237
36.749,37.503
36.786,37.749
36.807,37.973
36.813,38.174
36.807,38.35
36.789,38.499
36.762,38.622
36.726,38.718
36.684,38.787
36.636,38.831
36.584,38.851
36.528,38.848
36.469,38.825
36.409,38.785
36.347,38.728
36.285,38.658
36.222,38.577
36.16,38.487
36.097,38.389
36.035,38.285
35.974,38.177
35.913,38.065
35.852,37.951
35.793,37.835
35.733,37.719
35.674,37.603
35.615,37.487
35.555,37.374
35.495,37.262
35.434,37.152
35.372,37.045
35.311,36.94
35.25,36.838
35.189,36.737
35.13,36.637
35.072,36.538
35.016,36.44
34.963,36.343
34.914,36.247
34.869,36.152
34.828,36.059
34.792,35.966
34.76,35.876
34.734,35.788
34.713,35.703
34.697,35.621
34.687,35.544
34.681,35.472
34.68,35.405
34.682,35.345
34.689,35.292
34.698,35.246
34.71,35.208
34.724,35.179
34.741,35.157
34.758,35.144
34.776,35.139
34.795,35.141
34.812,35.15
34.828,35.164
34.843,35.183
34.855,35.206
34.864,35.232
34.872,35.259
34.877,35.288
34.88,35.317
34.88,35.346
34.878,35.375
34.874,35.402
34.867,35.428
34.858,35.451
34.845,35.472
34.831,35.488
34.813,35.501
34.794,35.509
34.772,35.512
34.749,35.51
34.723,35.503
34.696,35.49
34.668,35.473
34.64,35.451
34.611,35.424
34.583,35.393
34.555,35.357
34.528,35.317
34.502,35.275
34.476,35.229
34.452,35.181
34.428,35.131
34.404,35.078
34.381,35.024
34.358,34.968
34.335,34.91
34.313,34.852
34.291,34.792
34.269,34.732
34.247,34.671
34.226,34.611
34.204,34.55
34.182,34.49
34.16,34.429
34.138,34.37
34.115,34.31
34.093,34.252
34.07,34.194
34.047,34.138
34.024,34.082
34.001,34.029
33.978,33.977
33.955,33.928
33.933,33.882
33.91,33.838
33.887,33.797
33.865,33.758
33.842,33.722
33.82,33.687
33.797,33.654
33.774,33.622
33.753,33.591
33.732,33.561
33.712,33.531
33.693,33.502
33.676,33.473
33.661,33.445
33.647,33.418
33.635,33.392
33.626,33.367
33.619,33.343
33.617,33.319
33.619,33.297
33.627,33.276
33.643,33.255
33.667,33.236
33.7,33.217
33.745,33.199
33.802,33.182
33.873,33.166
33.959,33.151
34.06,33.136
34.177,33.123
34.309,33.111
34.455,33.099
34.615,33.089
34.785,33.078
34.963,33.069
35.149,33.06
35.338,33.051
35.529,33.043
35.719,33.035
35.905,33.027
36.084,33.018
36.253,33.011
36.411,33.004
36.556,32.999
36.685,32.997
36.799,32.997
36.896,33.003
36.976,33.014
37.039,33.034
37.086,33.065
37.117,33.11
37.132,33.171
37.134,33.25
37.124,33.351
37.104,33.476
37.074,33.625
37.037,33.801
36.994,34.003
36.946,34.232
36.894,34.485
36.838,34.762
36.779,35.059
36.718,35.374
36.654,35.702
36.589,36.039
36.522,36.381
36.455,36.724
36.388,37.062
36.32,37.39
36.254,37.705
36.189,38.003
36.125,38.28
36.064,38.534
36.003,38.763
35.945,38.965
35.888,39.14
35.831,39.287
35.776,39.406
35.72,39.498
35.665,39.564
35.611,39.604
35.557,39.621
35.503,39.616
35.451,39.591
35.401,39.547
35.352,39.487
35.306,39.413
35.263,39.327
35.224,39.23
35.188,39.124
35.154,39.012
35.125,38.895
35.098,38.775
35.076,38.654
35.057,38.532
35.042,38.412
35.031,38.293
35.025,38.178
35.024,38.065
35.026,37.956
35.032,37.85
35.041,37.749
35.052,37.651
35.067,37.556
35.083,37.464
35.101,37.374
35.12,37.287
35.14,37.201
35.159,37.117
35.177,37.035
35.194,36.954
35.209,36.876
35.222,36.801
35.232,36.727
35.24,36.657
35.244,36.591
35.244,36.528
35.242,36.471
35.235,36.419
35.226,36.374
35.213,36.335
35.198,36.304
35.18,36.279
35.159,36.261
35.136,36.25
35.112,36.246
35.085,36.248
35.057,36.256
35.028,36.268
34.999,36.285
34.969,36.306
34.94,36.329
34.911,36.354
34.883,36.38
34.856,36.405
34.829,36.43
34.803,36.453
34.777,36.474
34.751,36.491
34.726,36.504
34.7,36.512
34.673,36.515
34.647,36.511
34.621,36.5
34.595,36.483
34.569,36.457
34.543,36.424
34.519,36.384
34.494,36.336
34.47,36.282
34.447,36.222
34.423,36.157
34.4,36.088
34.377,36.016
34.354,35.942
34.331,35.866
34.308,35.789
34.285,35.71
34.262,35.631
34.239,35.552
34.217,35.472
34.195,35.393
34.175,35.314
34.154,35.237
34.135,35.16
34.116,35.084
34.097,35.009
34.078,34.936
34.059,34.865
34.04,34.794
34.022,34.726
34.003,34.659
33.985,34.593
33.967,34.53
33.949,34.468
33.931,34.409
33.914,34.351
33.898,34.297
33.884,34.245
33.872,34.197
33.865,34.152
33.861,34.112
33.864,34.076
33.874,34.044
33.893,34.017
33.923,33.994
33.965,33.976
34.021,33.963
34.093,33.954
34.18,33.948
34.284,33.946
34.405,33.947
34.543,33.951
34.695,33.957
34.862,33.966
35.04,33.977
35.227,33.989
35.421,34.003
35.617,34.017
35.813,34.033
36.006,34.049
36.193,34.066
36.372,34.083
36.541,34.1
36.697,34.116
36.84,34.131
36.966,34.145
37.077,34.156
37.17,34.164
37.247,34.17
37.306,34.173
37.348,34.174
37.376,34.172
37.389,34.167
37.39,34.16
37.379,34.15
37.359,34.136
37.329,34.119
37.292,34.099
37.249,34.076
37.2,34.051
37.146,34.022
37.089,33.991
37.029,33.959
36.967,33.925
36.904,33.891
36.841,33.858
36.777,33.829
36.713,33.806
36.65,33.792
36.586,33.789
36.524,33.802
36.461,33.832
36.398,33.883
36.335,33.959
36.273,34.062
36.21,34.192
36.147,34.352
36.085,34.54
36.023,34.757
35.963,35.002
35.903,35.272
35.845,35.566
35.789,35.881
35.734,36.211
35.682,36.554
35.632,36.903
35.586,37.253
35.544,37.6
35.505,37.939
35.472,38.266
35.442,38.576
35.417,38.868
35.396,39.137
35.38,39.383
35.368,39.603
35.36,39.796
35.355,39.962
35.355,40.1
35.357,40.211
35.363,40.295
35.371,40.353
35.382,40.387
35.396,40.399
35.411,40.39
35.427,40.364
35.444,40.323
35.462,40.267
35.48,40.2
35.497,40.123
35.512,40.037
35.526,39.943
35.536,39.845
35.544,39.742
35.548,39.636
35.549,39.529
35.546,39.422
35.54,39.314
35.53,39.207
35.517,39.1
35.502,38.995
35.484,38.891
35.464,38.788
35.442,38.687
35.42,38.587
35.397,38.488
35.373,38.389
35.349,38.289
35.324,38.189
35.299,38.087
35.274,37.984
35.249,37.879
35.223,37.773
35.197,37.664
35.171,37.555
35.146,37.445
35.121,37.337
35.097,37.232
35.074,37.13
35.051,37.034
35.029,36.945
35.008,36.863
34.988,36.789
34.968,36.724
34.948,36.667
34.929,36.62
34.91,36.581
34.892,36.551
34.873,36.529
34.854,36.515
34.836,36.508
34.817,36.506
34.798,36.51
34.778,36.518
34.758,36.53
34.737,36.545
34.715,36.562
34.693,36.581
34.67,36.602
34.646,36.623
34.622,36.645
34.598,36.665
34.574,36.684
34.55,36.7
34.528,36.713
34.506,36.723
34.485,36.727
34.466,36.727
34.446,36.721
34.427,36.71
34.407,36.694
34.388,36.672
34.368,36.646
34.348,36.615
34.328,36.58
34.307,36.541
34.286,36.499
34.266,36.453
34.247,36.404
34.231,36.352
34.218,36.298
34.21,36.241
34.208,36.183
34.214,36.123
34.23,36.061
34.256,35.998
34.295,35.934
34.347,35.868
34.414,35.801
34.497,35.733
34.595,35.664
34.709,35.594
34.839,35.524
34.982,35.454
35.137,35.384
35.302,35.314
35.475,35.246
35.653,35.178
35.833,35.113
36.014,35.05
36.193,34.989
36.366,34.93
36.533,34.874
36.69,34.82
36.836,34.768
36.97,34.719
37.09,34.673
37.195,34.628
37.284,34.585
37.357,34.544
37.414,34.504
37.456,34.464
37.483,34.426
37.497,34.388
37.499,34.35
37.49,34.313
37.471,34.277
37.444,34.241
37.411,34.204
37.371,34.168
37.326,34.132
37.277,34.096
37.224,34.06
37.168,34.025
37.109,33.99
37.049,33.955
36.987,33.92
36.925,33.885
36.863,33.849
36.8,33.813
36.737,33.777
36.675,33.742
36.613,33.706
36.552,33.671
36.491,33.638
36.431,33.605
36.372,33.573
36.313,33.543
36.254,33.514
36.195,33.487
36.136,33.462
36.078,33.439
36.02,33.419
35.963,33.404
35.907,33.394
35.852,33.391
35.8,33.397
35.75,33.414
35.704,33.446
35.661,33.493
35.621,33.56
35.587,33.648
35.557,33.759
35.532,33.897
35.512,34.061
35.497,34.253
35.488,34.472
35.484,34.718
35.486,34.989
35.492,35.282
35.503,35.596
35.517,35.925
35.534,36.266
35.554,36.613
35.575,36.963
35.597,37.309
35.619,37.647
35.642,37.973
35.663,38.282
35.683,38.572
35.701,38.838
35.717,39.078
35.731,39.29
35.741,39.475
35.75,39.63
35.756,39.757
35.759,39.856
35.76,39.928
35.758,39.975
35.753,39.997
35.746,39.997
35.736,39.977
35.723,39.938
35.706,39.883
35.687,39.813
35.666,39.732
35.642,39.64
35.616,39.54
35.589,39.434
35.56,39.322
35.531,39.207
35.501,39.09
35.471,38.971
35.441,38.852
35.411,38.733
35.381,38.615
35.35,38.497
35.32,38.382
35.289,38.269
35.258,38.157
35.228,38.048
35.197,37.941
35.167,37.836
35.138,37.732
35.109,37.629
35.08,37.526
35.052,37.424
35.024,37.321
34.995,37.218
34.967,37.115
34.938,37.012
34.908,36.91
34.878,36.808
34.848,36.707
34.817,36.609
34.786,36.513
34.756,36.422
34.726,36.335
34.697,36.254
34.669,36.18
34.642,36.114
34.616,36.057
34.591,36.008
34.567,35.969
34.543,35.938
34.521,35.915
34.5,35.9
34.479,35.891
34.459,35.889
34.439,35.891
34.42,35.897
34.4,35.907
34.381,35.918
34.362,35.931
34.344,35.945
34.326,35.959
34.311,35.973
34.299,35.987
34.291,35.999
34.29,36.011
34.298,36.022
34.316,36.03
34.348,36.036
34.393,36.038
34.454,36.036
34.532,36.029
34.626,36.018
34.739,36.002
34.868,35.98
35.014,35.953
35.174,35.921
35.347,35.883
35.53,35.84
35.721,35.792
35.917,35.738
36.116,35.681
36.314,35.619
36.51,35.554
36.699,35.485
36.88,35.413
37.05,35.339
37.208,35.263
37.351,35.187
37.478,35.11
37.59,35.034
37.684,34.958
37.763,34.882
37.825,34.807
37.872,34.733
37.904,34.66
37.922,34.588
37.927,34.518
37.92,34.449
37.903,34.382
37.876,34.317
37.842,34.254
37.8,34.192
37.752,34.133
37.7,34.076
37.645,34.02
37.587,33.965
37.527,33.912
37.466,33.859
37.404,33.808
37.341,33.758
37.277,33.71
37.213,33.663
37.148,33.617
37.083,33.574
37.017,33.532
36.95,33.492
36.882,33.454
36.814,33.418
36.745,33.383
36.676,33.35
36.607,33.32
36.538,33.291
36.469,33.263
36.4,33.238
36.333,33.214
36.267,33.191
36.203,33.17
36.142,33.149
36.084,33.129
36.031,33.109
35.981,33.089
35.936,33.07
35.897,33.049
35.862,33.029
35.832,33.008
35.808,32.986
35.789,32.964
35.776,32.94
35.768,32.917
35.765,32.892
35.768,32.868
35.775,32.844
35.787,32.82
35.803,32.799
35.821,32.78
35.843,32.766
35.865,32.758
35.889,32.759
35.912,32.771
35.935,32.797
35.956,32.84
35.975,32.903
35.992,32.99
36.006,33.105
36.017,33.248
36.023,33.421
36.025,33.626
36.023,33.863
36.017,34.13
36.006,34.425
35.992,34.746
35.973,35.09
35.951,35.453
35.925,35.829
35.896,36.214
35.865,36.603
35.832,36.989
35.797,37.368
35.761,37.735
35.723,38.085
35.683,38.415
35.644,38.72
35.605,38.999
35.566,39.248
35.528,39.466
35.49,39.652
35.454,39.806
35.419,39.928
35.385,40.019
35.351,40.08
35.319,40.113
35.287,40.121
35.255,40.105
35.223,40.069
35.191,40.015
35.158,39.945
35.126,39.862
35.093,39.769
35.06,39.666
35.027,39.557
34.995,39.443
34.963,39.324
34.931,39.203
34.901,39.081
34.871,38.958
34.841,38.835
34.812,38.714
34.783,38.595
34.755,38.478
34.726,38.364
34.697,38.254
34.668,38.147
34.639,38.044
34.61,37.944
34.581,37.848
34.552,37.754
34.523,37.662
34.494,37.57
34.466,37.479
34.437,37.386
34.41,37.292
34.382,37.196
34.354,37.098
34.326,36.998
34.299,36.897
34.274,36.795
34.25,36.693
34.228,36.593
34.211,36.495
34.199,36.402
34.193,36.314
34.196,36.231
34.209,36.156
34.234,36.087
34.274,36.026
34.33,35.972
34.404,35.926
34.497,35.888
34.61,35.858
34.743,35.834
34.895,35.817
35.065,35.807
35.253,35.802
35.456,35.801
35.673,35.805
35.9,35.811
36.135,35.819
36.375,35.828
36.617,35.837
36.858,35.846
37.094,35.853
37.322,35.859
37.541,35.863
37.747,35.866
37.938,35.867
38.111,35.865
38.266,35.861
38.402,35.853
38.517,35.841
38.613,35.826
38.69,35.805
38.748,35.78
38.789,35.749
38.814,35.712
38.824,35.669
38.82,35.62
38.804,35.567
38.778,35.509
38.742,35.446
38.698,35.379
38.647,35.308
38.59,35.234
38.529,35.156
38.464,35.077
38.396,34.995
38.327,34.912
38.258,34.828
38.188,34.744
38.12,34.66
38.052,34.577
37.985,34.495
37.92,34.416
37.855,34.338
37.791,34.262
37.727,34.19
37.663,34.119
37.598,34.052
37.532,33.986
37.465,33.922
37.397,33.86
37.329,33.801
37.261,33.743
37.193,33.687
37.125,33.633
37.059,33.58
36.993,33.529
36.93,33.48
36.868,33.433
36.809,33.386
36.754,33.341
36.702,33.297
36.656,33.254
36.615,33.212
36.578,33.171
36.547,33.132
36.521,33.095
36.5,33.06
36.484,33.026
36.472,32.994
36.466,32.963
36.464,32.934
36.466,32.905
36.472,32.878
36.481,32.851
36.493,32.824
36.507,32.797
36.522,32.771
36.539,32.745
36.556,32.719
36.574,32.694
36.591,32.669
36.608,32.644
36.622,32.621
36.634,32.598
36.643,32.577
36.648,32.557
36.648,32.538
36.644,32.522
36.634,32.507
36.619,32.495
36.599,32.486
36.572,32.481
36.541,32.481
36.505,32.49
36.465,32.508
36.422,32.539
36.375,32.586
36.326,32.652
36.275,32.739
36.223,32.851
36.17,32.989
36.118,33.156
36.065,33.353
36.014,33.58
35.963,33.837
35.913,34.121
35.865,34.431
35.817,34.762
35.771,35.11
35.726,35.472
35.682,35.841
35.639,36.213
35.598,36.583
35.558,36.945
35.519,37.293
35.482,37.625
35.445,37.934
35.408,38.219
35.371,38.477
35.333,38.705
35.295,38.903
35.256,39.071
35.218,39.207
35.18,39.313
35.142,39.389
35.106,39.437
35.071,39.458
35.036,39.454
35.003,39.427
34.97,39.38
34.937,39.315
34.905,39.235
34.873,39.141
34.84,39.038
34.808,38.925
34.775,38.806
34.742,38.681
34.709,38.553
34.675,38.423
34.641,38.292
34.606,38.161
34.573,38.032
34.539,37.905
34.508,37.781
34.478,37.661
34.452,37.545
34.43,37.433
34.413,37.325
34.402,37.221
34.401,37.121
34.41,37.025
34.431,36.93
34.467,36.838
34.52,36.745
34.591,36.653
34.682,36.56
34.794,36.466
34.927,36.372
35.081,36.278
35.255,36.183
35.447,36.087
35.656,35.992
35.88,35.897
36.115,35.804
36.358,35.713
36.607,35.625
36.857,35.541
37.106,35.461
37.348,35.385
37.581,35.315
37.803,35.25
38.009,35.191
38.2,35.138
38.372,35.093
38.525,35.055
38.658,35.023
38.771,34.999
38.863,34.981
38.935,34.969
38.988,34.962
39.023,34.96
39.042,34.961
39.045,34.965
39.034,34.971
39.011,34.978
38.977,34.985
38.932,34.993
38.88,34.999
38.82,35.004
38.754,35.007
38.684,35.007
38.611,35.004
38.535,34.998
38.458,34.988
38.381,34.974
38.304,34.956
38.228,34.932
38.151,34.903
38.076,34.869
38.001,34.83
37.927,34.785
37.854,34.736
37.781,34.682
37.708,34.625
37.635,34.565
37.561,34.502
37.486,34.438
37.411,34.371
37.335,34.303
37.258,34.235
37.182,34.166
37.107,34.097
37.034,34.028
36.962,33.96
36.892,33.891
36.826,33.823
36.762,33.756
36.702,33.69
36.646,33.624
36.594,33.56
36.545,33.496
36.501,33.433
36.461,33.372
36.426,33.312
36.396,33.254
36.371,33.198
36.351,33.145
36.336,33.095
36.326,33.047
36.319,33.003
36.317,32.961
36.317,32.921
36.32,32.884
36.325,32.849
36.331,32.814
36.337,32.781
36.342,32.748
36.347,32.716
36.35,32.684
36.352,32.652
36.351,32.62
36.349,32.589
36.345,32.557
36.338,32.526
36.329,32.494
36.316,32.463
36.301,32.432
36.282,32.402
36.26,32.373
36.235,32.344
36.207,32.317
36.175,32.292
36.141,32.268
36.105,32.246
36.066,32.226
36.025,32.208
35.982,32.191
35.938,32.176
35.893,32.162
35.848,32.148
35.801,32.134
35.755,32.12
35.708,32.107
35.66,32.092
35.611,32.077
35.563,32.062
35.513,32.045
35.464,32.027
35.416,32.008
35.368,31.988
35.32,31.966
35.273,31.944
35.226,31.922
35.18,31.901
35.134,31.883
35.088,31.869
35.043,31.86
34.997,31.86
34.952,31.871
34.906,31.895
34.862,31.935
34.818,31.994
34.775,32.075
34.733,32.18
34.693,32.31
34.654,32.467
34.617,32.651
34.582,32.861
34.547,33.096
34.514,33.356
34.481,33.636
34.448,33.935
34.416,34.248
34.385,34.571
34.355,34.899
34.326,35.228
34.298,35.551
34.271,35.866
34.244,36.167
34.218,36.452
34.193,36.717
34.167,36.959
34.141,37.177
34.115,37.368
34.089,37.532
34.062,37.668
34.035,37.778
34.009,37.861
33.983,37.919
33.96,37.954
33.94,37.968
33.925,37.962
33.918,37.937
33.92,37.898
33.934,37.844
33.961,37.779
34.005,37.704
34.067,37.621
34.148,37.532
34.25,37.438
34.373,37.34
34.517,37.238
34.682,37.135
34.867,37.031
35.07,36.927
35.288,36.824
35.519,36.723
35.759,36.623
36.004,36.527
36.253,36.433
36.5,36.343
36.743,36.256
36.978,36.172
37.201,36.092
37.411,36.013
37.604,35.936
37.778,35.861
37.933,35.786
38.067,35.711
38.181,35.636
38.274,35.56
38.347,35.484
38.4,35.406
38.435,35.328
38.453,35.249
38.455,35.172
38.442,35.096
38.417,35.022
38.381,34.952
38.335,34.886
38.281,34.824
38.221,34.767
38.155,34.715
38.086,34.669
38.014,34.629
37.941,34.594
37.867,34.567
37.792,34.546
37.716,34.531
37.641,34.522
37.566,34.518
37.492,34.519
37.42,34.524
37.348,34.532
37.276,34.543
37.206,34.556
37.135,34.571
37.064,34.586
36.993,34.601
36.921,34.615
36.848,34.627
36.775,34.638
36.702,34.646
36.629,34.652
36.556,34.654
36.485,34.654
36.415,34.65
36.347,34.642
36.282,34.63
36.22,34.614
36.162,34.594
36.108,34.571
36.059,34.543
36.015,34.513
35.976,34.478
35.943,34.441
35.916,34.401
35.895,34.357
35.879,34.311
35.867,34.263
35.861,34.212
35.858,34.159
35.86,34.104
35.865,34.047
35.874,33.989
35.885,33.931
35.898,33.873
35.912,33.816
35.927,33.759
35.942,33.704
35.956,33.651
35.969,33.598
35.98,33.548
35.989,33.499
35.994,33.452
35.996,33.407
35.994,33.364
35.989,33.324
35.979,33.285
35.965,33.248
35.947,33.213
35.924,33.179
35.896,33.148
35.865,33.119
35.828,33.091
35.788,33.065
35.744,33.041
35.696,33.019
35.646,32.999
35.594,32.982
35.539,32.967
35.484,32.954
35.427,32.944
35.371,32.936
35.316,32.931
35.261,32.928
35.207,32.928
35.155,32.929
35.104,32.931
35.055,32.935
35.007,32.939
34.96,32.944
34.915,32.948
34.869,32.951
34.825,32.953
34.78,32.955
34.735,32.955
34.692,32.955
34.649,32.953
34.607,32.95
34.566,32.946
34.527,32.94
34.488,32.934
34.451,32.926
34.415,32.918
34.38,32.909
34.345,32.9
34.311,32.891
34.278,32.88
34.245,32.869
34.212,32.857
34.179,32.844
34.147,32.829
34.114,32.813
34.081,32.795
34.048,32.777
34.014,32.757
33.98,32.736
33.947,32.715
33.914,32.693
33.883,32.671
33.853,32.648
33.825,32.625
33.797,32.603
33.771,32.582
33.745,32.562
33.72,32.546
33.696,32.533
33.672,32.525
33.649,32.525
33.627,32.534
33.607,32.553
33.591,32.586
33.579,32.636
33.573,32.706
33.574,32.797
33.586,32.911
33.609,33.051
33.647,33.218
33.7,33.411
33.772,33.629
33.864,33.871
33.975,34.135
34.107,34.417
34.258,34.714
34.428,35.023
34.615,35.338
34.817,35.656
35.03,35.972
35.253,36.283
35.482,36.583
35.714,36.869
35.945,37.139
36.174,37.39
36.395,37.62
36.608,37.828
36.81,38.012
36.998,38.171
37.171,38.306
37.327,38.418
37.466,38.505
37.586,38.569
37.687,38.612
37.768,38.635
37.831,38.64
37.875,38.629
37.902,38.604
37.913,38.567
37.909,38.52
37.893,38.465
37.866,38.403
37.831,38.335
37.788,38.262
37.74,38.185
37.687,38.106
37.63,38.025
37.572,37.943
37.511,37.861
37.45,37.78
37.389,37.7
37.327,37.623
37.265,37.547
37.203,37.474
37.142,37.403
37.08,37.334
37.018,37.267
36.955,37.201
36.891,37.136
36.826,37.071
36.759,37.005
36.69,36.937
36.62,36.869
36.548,36.798
36.475,36.725
36.401,36.651
36.327,36.574
36.254,36.496
36.182,36.417
36.112,36.339
36.044,36.261
35.981,36.185
35.921,36.111
35.867,36.041
35.817,35.975
35.774,35.914
35.736,35.858
35.704,35.808
35.678,35.765
35.659,35.729
35.645,35.7
35.636,35.677
35.633,35.661
35.635,35.652
35.641,35.648
35.651,35.648
35.663,35.653
35.678,35.66
35.694,35.67
35.712,35.68
35.729,35.691
35.746,35.7
35.761,35.708
35.775,35.714
35.786,35.718
35.794,35.719
35.798,35.717
35.798,35.713
35.794,35.705
35.786,35.695
35.773,35.682
35.757,35.666
35.736,35.648
35.711,35.628
35.683,35.606
35.652,35.582
35.618,35.556
35.582,35.528
35.544,35.498
35.504,35.465
35.463,35.429
35.42,35.39
35.376,35.349
35.331,35.305
35.286,35.259
35.239,35.211
35.192,35.161
35.145,35.109
35.097,35.057
35.049,35.004
35,34.95
34.951,34.896
34.901,34.843
34.85,34.789
34.799,34.737
34.748,34.686
34.697,34.635
34.646,34.585
34.595,34.536
34.545,34.488
34.495,34.441
34.446,34.396
34.397,34.352
34.35,34.31
34.303,34.271
34.258,34.233
34.213,34.198
34.17,34.166
34.129,34.136
34.089,34.11
34.051,34.085
34.015,34.063
33.981,34.043
33.948,34.024
33.917,34.008
33.886,33.993
33.857,33.979
33.83,33.967
33.803,33.955
33.778,33.945
33.753,33.936
33.728,33.928
33.704,33.922
33.679,33.918
33.655,33.915
33.63,33.914
33.605,33.915
33.58,33.917
33.555,33.92
33.53,33.924
33.504,33.928
33.478,33.932
33.453,33.936
33.43,33.939
33.408,33.941
33.389,33.941
33.375,33.94
33.367,33.938
33.367,33.934
33.376,33.929
33.397,33.922
33.429,33.914
33.477,33.904
33.54,33.892
33.62,33.878
33.718,33.864
33.835,33.849
33.971,33.832
34.126,33.815
34.299,33.797
34.489,33.779
34.694,33.76
34.912,33.741
35.141,33.721
35.376,33.702
35.615,33.683
35.854,33.664
36.09,33.645
36.319,33.629
36.538,33.615
36.745,33.605
36.937,33.6
37.112,33.603
37.269,33.614
37.406,33.636
37.523,33.672
37.62,33.723
37.696,33.791
37.753,33.879
37.792,33.989
37.813,34.121
37.819,34.276
37.811,34.454
37.79,34.654
37.759,34.876
37.718,35.116
37.669,35.372
37.614,35.641
37.554,35.918
37.491,36.201
37.424,36.484
37.356,36.764
37.287,37.037
37.218,37.298
37.149,37.546
37.08,37.775
37.012,37.986
36.945,38.174
36.879,38.34
36.815,38.482
36.752,38.6
36.69,38.693
36.628,38.762
36.568,38.808
36.507,38.833
36.445,38.838
36.383,38.825
36.321,38.796
36.258,38.753
36.194,38.698
36.13,38.632
36.066,38.558
36.002,38.477
35.939,38.391
35.877,38.303
35.817,38.212
35.759,38.121
35.704,38.031
35.653,37.942
35.607,37.854
35.565,37.77
35.527,37.688
35.495,37.609
35.466,37.533
35.442,37.461
35.422,37.391
35.407,37.323
35.395,37.256
35.388,37.19
35.385,37.123
35.385,37.055
35.388,36.985
35.395,36.913
35.403,36.838
35.413,36.761
35.424,36.681
35.435,36.6
35.447,36.518
35.458,36.436
35.468,36.356
35.477,36.277
35.484,36.201
35.487,36.129
35.488,36.061
35.484,35.997
35.477,35.94
35.465,35.889
35.45,35.845
35.431,35.809
35.408,35.781
35.382,35.76
35.352,35.747
35.32,35.74
35.287,35.739
35.251,35.744
35.215,35.753
35.179,35.765
35.141,35.78
35.103,35.796
35.065,35.814
35.025,35.831
34.985,35.848
34.945,35.863
34.904,35.876
34.863,35.885
34.821,35.889
34.778,35.89
34.736,35.886
34.694,35.877
34.653,35.863
34.612,35.845
34.571,35.822
34.531,35.796
34.491,35.766
34.451,35.733
34.411,35.699
34.371,35.663
34.33,35.625
34.29,35.587
34.25,35.549
34.21,35.509
34.172,35.469
34.134,35.429
34.097,35.389
34.061,35.349
34.026,35.309
33.992,35.27
33.959,35.23
33.928,35.191
33.897,35.152
33.868,35.112
33.839,35.072
33.812,35.031
33.784,34.99
33.758,34.949
33.73,34.907
33.703,34.865
33.675,34.823
33.648,34.782
33.621,34.74
33.594,34.699
33.568,34.658
33.542,34.618
33.516,34.578
33.491,34.539
33.467,34.5
33.443,34.461
33.42,34.422
33.398,34.382
33.377,34.342
33.357,34.3
33.34,34.258
33.326,34.215
33.317,34.172
33.314,34.128
33.319,34.084
33.333,34.039
33.359,33.995
33.396,33.952
33.447,33.911
33.512,33.871
33.593,33.834
33.69,33.8
33.804,33.768
33.933,33.739
34.079,33.713
34.239,33.688
34.412,33.666
34.597,33.646
34.792,33.628
34.994,33.613
35.201,33.598
35.41,33.585
35.618,33.574
35.823,33.563
36.022,33.552
36.212,33.541
36.392,33.53
36.558,33.518
36.711,33.505
36.848,33.491
36.968,33.476
37.072,33.46
37.158,33.442
37.228,33.422
37.281,33.401
37.319,33.378
37.341,33.354
37.351,33.328
37.348,33.302
37.334,33.274
37.311,33.245
37.279,33.216
37.242,33.187
37.198,33.158
37.151,33.131
37.1,33.105
37.047,33.081
36.992,33.062
36.935,33.046
36.878,33.037
36.82,33.036
36.762,33.045
36.705,33.065
36.647,33.1
36.591,33.151
36.536,33.22
36.482,33.308
36.43,33.417
36.379,33.547
36.33,33.698
36.282,33.869
36.235,34.059
36.188,34.267
36.14,34.49
36.091,34.726
36.041,34.972
35.99,35.223
35.939,35.477
35.886,35.729
35.834,35.976
35.783,36.214
35.733,36.441
35.685,36.652
35.641,36.846
35.601,37.021
35.564,37.175
35.532,37.307
35.504,37.416
35.481,37.504
35.462,37.569
35.449,37.614
35.44,37.638
35.434,37.644
35.433,37.633
35.435,37.607
35.44,37.569
35.448,37.519
35.458,37.46
35.47,37.394
35.483,37.321
35.496,37.243
35.508,37.161
35.519,37.076
35.529,36.989
35.536,36.9
35.541,36.81
35.543,36.72
35.542,36.63
35.539,36.54
35.532,36.451
35.522,36.363
35.509,36.276
35.493,36.19
35.474,36.104
35.451,36.019
35.426,35.934
35.398,35.85
35.368,35.766
35.336,35.683
35.302,35.6
35.266,35.518
35.229,35.436
35.191,35.356
35.152,35.277
35.113,35.199
35.074,35.124
35.035,35.052
34.997,34.983
34.959,34.918
34.922,34.857
34.886,34.802
34.85,34.753
34.814,34.711
34.778,34.677
34.743,34.649
34.709,34.629
34.675,34.616
34.641,34.609
34.608,34.609
34.575,34.615
34.543,34.627
34.511,34.644
34.48,34.665
34.449,34.689
34.419,34.717
34.389,34.746
34.36,34.776
34.331,34.806
34.302,34.835
34.273,34.864
34.244,34.89
34.216,34.915
34.187,34.936
34.158,34.955
34.13,34.969
34.102,34.98
34.075,34.986
34.048,34.987
34.022,34.983
33.997,34.974
33.972,34.96
33.948,34.94
33.926,34.915
33.905,34.885
33.885,34.85
33.866,34.812
33.849,34.77
33.832,34.725
33.816,34.677
33.801,34.627
33.785,34.576
33.771,34.523
33.756,34.47
33.741,34.416
33.727,34.364
33.712,34.312
33.697,34.262
33.682,34.213
33.667,34.165
33.653,34.119
33.64,34.075
33.627,34.033
33.616,33.993
33.606,33.955
33.598,33.919
33.593,33.884
33.59,33.851
33.592,33.819
33.6,33.788
33.615,33.758
33.639,33.729
33.674,33.701
33.722,33.673
33.784,33.646
33.862,33.619
33.955,33.592
34.065,33.565
34.191,33.539
34.332,33.513
34.487,33.488
34.655,33.464
34.833,33.441
35.018,33.419
35.208,33.4
35.398,33.383
35.587,33.367
35.771,33.354
35.947,33.342
36.114,33.332
36.269,33.323
36.409,33.316
36.535,33.309
36.645,33.303
36.738,33.296
36.815,33.29
36.876,33.283
36.921,33.276
36.951,33.268
36.966,33.259
36.969,33.251
36.961,33.242
36.942,33.232
36.915,33.222
36.88,33.211
36.838,33.199
36.792,33.186
36.742,33.173
36.689,33.158
36.634,33.144
36.578,33.129
36.521,33.115
36.465,33.103
36.409,33.092
36.354,33.084
36.301,33.08
36.249,33.081
36.198,33.087
36.149,33.102
36.101,33.125
36.055,33.159
36.009,33.206
35.963,33.268
35.917,33.347
35.872,33.445
35.826,33.561
35.78,33.698
35.734,33.854
35.687,34.03
35.638,34.224
35.59,34.435
35.541,34.66
35.493,34.897
35.446,35.142
35.401,35.391
35.359,35.642
35.321,35.892
35.286,36.136
35.256,36.371
35.231,36.596
35.21,36.806
35.195,37.001
35.184,37.178
35.178,37.334
35.176,37.47
35.177,37.585
35.181,37.679
35.187,37.753
35.194,37.807
35.203,37.843
35.212,37.86
35.221,37.861
35.229,37.848
35.237,37.821
35.243,37.782
35.248,37.733
35.251,37.676
35.252,37.61
35.252,37.539
35.249,37.462
35.244,37.382
35.237,37.3
35.227,37.217
35.215,37.133
35.201,37.05
35.184,36.969
35.167,36.89
35.147,36.814
35.127,36.741
35.105,36.671
35.082,36.605
35.059,36.541
35.034,36.481
35.008,36.424
34.981,36.369
34.953,36.315
34.923,36.263
34.891,36.21
34.858,36.157
34.824,36.103
34.788,36.048
34.751,35.992
34.713,35.936
34.675,35.88
34.635,35.824
34.596,35.768
34.556,35.714
34.515,35.663
34.475,35.614
34.435,35.57
34.396,35.531
34.357,35.496
34.318,35.468
34.281,35.445
34.245,35.427
34.211,35.416
34.179,35.409
34.149,35.409
34.121,35.413
34.095,35.422
34.071,35.435
34.048,35.452
34.026,35.471
34.006,35.491
33.986,35.512
33.967,35.533
33.948,35.553
33.93,35.572
33.911,35.589
33.893,35.604
33.875,35.616
33.856,35.627
33.836,35.635
33.816,35.641
33.794,35.644
33.77,35.644
33.746,35.64
33.72,35.633
33.692,35.621
33.664,35.605
33.636,35.583
33.607,35.557
33.579,35.526
33.552,35.49
33.527,35.448
33.502,35.403
33.48,35.353
33.461,35.3
33.443,35.244
33.429,35.186
33.419,35.126
33.413,35.066
33.413,35.006
33.42,34.947
33.436,34.889
33.461,34.832
33.498,34.776
33.546,34.722
33.608,34.669
33.682,34.617
33.769,34.567
33.868,34.519
33.979,34.473
34.102,34.429
34.235,34.387
34.377,34.347
34.526,34.309
34.681,34.272
34.839,34.237
34.999,34.202
35.158,34.169
35.314,34.136
35.464,34.104
35.607,34.073
35.741,34.044
35.863,34.016
35.972,33.989
36.068,33.963
36.149,33.938
36.216,33.913
36.269,33.888
36.307,33.863
36.333,33.837
36.346,33.81
36.348,33.782
36.34,33.753
36.324,33.722
36.3,33.691
36.27,33.658
36.236,33.625
36.197,33.591
36.156,33.557
36.112,33.523
36.065,33.489
36.018,33.455
35.969,33.422
35.92,33.39
35.871,33.36
35.823,33.33
35.775,33.302
35.729,33.275
35.684,33.25
35.64,33.226
35.598,33.205
35.555,33.185
35.513,33.168
35.472,33.152
35.43,33.137
35.387,33.123
35.344,33.109
35.3,33.095
35.255,33.081
35.209,33.067
35.163,33.053
35.117,33.039
35.071,33.026
35.026,33.016
34.982,33.01
34.939,33.009
34.898,33.016
34.859,33.032
34.823,33.061
34.79,33.104
34.761,33.164
34.737,33.241
34.718,33.338
34.704,33.454
34.695,33.591
34.691,33.747
34.691,33.921
34.695,34.112
34.703,34.318
34.714,34.535
34.728,34.762
34.744,34.996
34.761,35.232
34.78,35.468
34.8,35.7
34.819,35.925
34.838,36.14
34.855,36.341
34.871,36.527
34.885,36.695
34.896,36.844
34.905,36.973
34.911,37.082
34.912,37.171
34.91,37.24
34.904,37.289
34.893,37.322
34.877,37.337
34.858,37.337
34.836,37.323
34.81,37.298
34.782,37.261
34.752,37.214
34.721,37.16
34.689,37.098
34.657,37.029
34.625,36.956
34.592,36.878
34.561,36.797
34.531,36.714
34.503,36.63
34.476,36.545
34.451,36.459
34.426,36.374
34.402,36.289
34.378,36.205
34.354,36.121
34.33,36.038
34.305,35.956
34.28,35.875
34.253,35.794
34.225,35.714
34.197,35.634
34.167,35.555
34.137,35.476
34.106,35.397
34.076,35.319
34.046,35.243
34.018,35.167
33.99,35.093
33.964,35.02
33.939,34.95
33.915,34.882
33.892,34.817
33.87,34.755
33.849,34.698
33.83,34.645
33.811,34.597
33.793,34.554
33.776,34.517
33.758,34.486
33.74,34.46
33.721,34.44
33.702,34.425
33.683,34.415
33.663,34.411
33.643,34.41
33.623,34.414
33.603,34.422
33.584,34.433
33.565,34.446
33.546,34.462
33.529,34.478
33.512,34.496
33.496,34.514
33.483,34.532
33.471,34.549
33.463,34.564
33.459,34.577
33.46,34.587
33.468,34.595
33.484,34.598
33.509,34.597
33.545,34.592
33.593,34.582
33.654,34.567
33.729,34.548
33.819,34.525
33.923,34.499
34.041,34.469
34.174,34.436
34.319,34.401
34.475,34.362
34.641,34.322
34.814,34.281
34.991,34.238
35.171,34.195
35.35,34.152
35.526,34.109
35.697,34.066
35.859,34.023
36.01,33.981
36.15,33.939
36.276,33.897
36.387,33.856
36.484,33.814
36.566,33.773
36.632,33.731
36.685,33.689
36.724,33.647
36.75,33.605
36.764,33.563
36.767,33.521
36.761,33.479
36.747,33.437
36.726,33.396
36.699,33.355
36.668,33.314
36.633,33.275
36.595,33.238
36.555,33.201
36.513,33.165
36.47,33.131
36.427,33.097
36.383,33.065
36.339,33.035
36.295,33.005
36.25,32.976
36.206,32.948
36.163,32.921
36.119,32.894
36.075,32.869
36.03,32.844
35.986,32.82
35.941,32.797
35.897,32.775
35.853,32.755
35.809,32.735
35.766,32.717
35.723,32.699
35.681,32.681
35.64,32.664
35.6,32.647
35.562,32.63
35.525,32.612
35.491,32.595
35.458,32.578
35.427,32.56
35.399,32.543
35.374,32.527
35.352,32.511
35.335,32.497
35.321,32.485
35.31,32.476
35.303,32.471
35.3,32.471
35.299,32.477
35.3,32.492
35.302,32.518
35.307,32.556
35.312,32.608
35.32,32.674
35.328,32.758
35.337,32.858
35.347,32.976
35.358,33.111
35.369,33.264
35.381,33.432
35.393,33.616
35.404,33.811
35.415,34.017
35.424,34.231
35.432,34.449
35.438,34.669
35.443,34.888
35.445,35.102
35.445,35.309
35.443,35.505
35.439,35.689
35.432,35.859
35.423,36.012
35.412,36.148
35.399,36.266
35.384,36.366
35.367,36.448
35.348,36.512
35.327,36.56
35.304,36.593
35.28,36.611
35.255,36.616
35.228,36.61
35.201,36.595
35.172,36.571
35.142,36.542
35.112,36.507
35.081,36.468
35.049,36.425
35.018,36.381
34.986,36.334
34.955,36.285
34.924,36.235
34.894,36.183
34.864,36.13
34.835,36.076
34.807,36.02
34.78,35.964
34.754,35.906
34.729,35.847
34.706,35.788
34.683,35.728
34.662,35.668
34.642,35.607
34.623,35.546
34.606,35.485
34.59,35.423
34.575,35.36
34.56,35.298
34.545,35.236
34.531,35.176
34.517,35.118
34.505,35.061
34.493,35.008
34.482,34.959
34.472,34.914
34.464,34.874
34.456,34.839
34.45,34.811
34.444,34.788
34.439,34.772
34.435,34.762
34.432,34.758
34.429,34.761
34.427,34.769
34.426,34.784
34.427,34.803
34.428,34.827
34.431,34.855
34.434,34.887
34.438,34.921
34.444,34.957
34.453,34.995
34.467,35.034
34.487,35.072
34.515,35.111
34.553,35.149
34.602,35.186
34.662,35.221
34.737,35.254
34.824,35.285
34.927,35.313
35.043,35.338
35.172,35.358
35.314,35.374
35.466,35.385
35.627,35.391
35.795,35.393
35.968,35.39
36.142,35.384
36.314,35.373
36.483,35.358
36.645,35.34
36.8,35.318
36.944,35.292
37.077,35.264
37.197,35.233
37.303,35.201
37.396,35.166
37.474,35.131
37.538,35.095
37.589,35.058
37.626,35.022
37.651,34.986
37.665,34.951
37.667,34.916
37.661,34.883
37.646,34.85
37.624,34.819
37.595,34.789
37.56,34.759
37.52,34.73
37.476,34.701
37.429,34.671
37.379,34.641
37.328,34.611
37.275,34.579
37.222,34.547
37.169,34.514
37.118,34.481
37.069,34.449
37.022,34.416
36.977,34.384
36.936,34.353
36.896,34.323
36.858,34.294
36.821,34.267
36.785,34.242
36.748,34.219
36.71,34.198
36.672,34.18
36.633,34.163
36.593,34.147
36.551,34.133
36.509,34.119
36.465,34.105
36.42,34.093
36.375,34.08
36.33,34.068
36.286,34.056
36.243,34.046
36.202,34.036
36.164,34.026
36.13,34.017
36.099,34.008
36.073,33.999
36.051,33.989
36.034,33.979
36.021,33.969
36.012,33.958
36.007,33.947
36.005,33.935
36.007,33.922
36.012,33.908
36.019,33.893
36.028,33.878
36.036,33.861
36.045,33.844
36.053,33.827
36.06,33.811
36.066,33.798
36.071,33.787
36.074,33.78
36.076,33.779
36.076,33.784
36.073,33.797
36.067,33.82
36.058,33.854
36.047,33.902
36.032,33.964
36.015,34.044
35.997,34.142
35.976,34.26
35.955,34.397
35.932,34.553
35.909,34.728
35.885,34.919
35.86,35.125
35.836,35.344
35.811,35.571
35.787,35.804
35.762,36.039
35.739,36.273
35.715,36.502
35.692,36.724
35.668,36.937
35.645,37.138
35.623,37.326
35.6,37.499
35.579,37.655
35.557,37.793
35.535,37.912
35.514,38.011
35.492,38.09
35.47,38.148
35.448,38.187
35.426,38.207
35.405,38.21
35.383,38.197
35.363,38.171
35.343,38.132
35.323,38.082
35.305,38.024
35.287,37.959
35.27,37.888
35.253,37.814
35.235,37.737
35.217,37.66
35.199,37.582
35.179,37.504
35.159,37.429
35.138,37.355
35.116,37.284
35.094,37.215
35.071,37.149
35.049,37.086
35.026,37.025
35.003,36.966
34.98,36.909
34.957,36.854
34.935,36.8
34.912,36.747
34.89,36.695
34.869,36.643
34.849,36.591
34.83,36.539
34.811,36.487
34.794,36.436
34.778,36.385
34.763,36.335
34.749,36.286
34.736,36.239
34.723,36.195
34.711,36.153
34.699,36.115
34.689,36.082
34.679,36.053
34.67,36.029
34.663,36.011
34.657,35.998
34.653,35.99
34.653,35.987
34.659,35.988
34.67,35.994
34.69,36.004
34.719,36.018
34.759,36.035
34.811,36.055
34.875,36.077
34.953,36.1
35.043,36.123
35.146,36.146
35.261,36.167
35.388,36.187
35.525,36.206
35.67,36.222
35.82,36.237
35.973,36.248
36.128,36.256
36.281,36.261
36.431,36.263
36.575,36.262
36.712,36.257
36.839,36.249
36.956,36.238
37.061,36.224
37.153,36.207
37.232,36.187
37.298,36.165
37.35,36.139
37.389,36.111
37.416,36.082
37.432,36.05
37.437,36.018
37.433,35.984
37.421,35.949
37.402,35.913
37.376,35.876
37.347,35.839
37.313,35.8
37.276,35.761
37.237,35.721
37.196,35.681
37.154,35.641
37.112,35.6
37.071,35.56
37.031,35.519
36.992,35.478
36.955,35.437
36.921,35.396
36.888,35.355
36.857,35.314
36.827,35.273
36.798,35.233
36.77,35.193
36.743,35.154
36.715,35.116
36.687,35.08
36.657,35.045
36.626,35.012
36.593,34.98
36.557,34.948
36.52,34.918
36.48,34.888
36.439,34.859
36.397,34.831
36.354,34.803
36.311,34.776
36.27,34.75
36.23,34.725
36.192,34.701
36.157,34.677
36.125,34.653
36.096,34.631
36.071,34.608
36.049,34.586
36.032,34.565
36.017,34.544
36.006,34.523
35.998,34.503
35.993,34.483
35.989,34.463
35.987,34.444
35.987,34.425
35.989,34.406
35.991,34.388
35.993,34.369
35.995,34.349
35.996,34.329
35.997,34.309
35.997,34.288
35.995,34.266
35.992,34.243
35.987,34.22
35.979,34.197
35.971,34.176
35.961,34.156
35.95,34.141
35.938,34.131
35.925,34.128
35.911,34.134
35.896,34.152
35.88,34.182
35.864,34.227
35.846,34.288
35.827,34.367
35.807,34.463
35.787,34.578
35.765,34.711
35.743,34.861
35.721,35.027
35.7,35.206
35.679,35.397
35.658,35.596
35.639,35.8
35.621,36.006
35.603,36.211
35.587,36.413
35.57,36.607
35.553,36.792
35.535,36.965
35.516,37.124
35.497,37.267
35.476,37.394
35.454,37.502
35.432,37.592
35.41,37.664
35.388,37.718
35.367,37.756
35.347,37.778
35.329,37.785
35.313,37.778
35.298,37.76
35.284,37.731
35.272,37.692
35.26,37.646
35.249,37.593
35.238,37.534
35.227,37.471
35.216,37.404
35.204,37.334
35.193,37.262
35.181,37.189
35.17,37.117
35.157,37.045
35.145,36.974
35.133,36.906
35.121,36.84
35.108,36.777
35.095,36.717
35.082,36.66
35.067,36.605
35.051,36.552
35.034,36.5
35.017,36.449
34.998,36.397
34.978,36.346
34.957,36.294
34.936,36.243
34.915,36.191
34.895,36.139
34.874,36.087
34.855,36.035
34.836,35.984
34.817,35.933
34.799,35.884
34.78,35.837
34.76,35.793
34.741,35.753
34.721,35.717
34.702,35.686
34.683,35.66
34.666,35.639
34.651,35.624
34.641,35.614
34.636,35.609
34.638,35.609
34.65,35.614
34.672,35.624
34.706,35.638
34.753,35.655
34.813,35.675
34.888,35.697
34.975,35.72
35.076,35.743
35.188,35.766
35.309,35.788
35.439,35.809
35.574,35.828
35.711,35.844
35.847,35.857
35.98,35.867
36.107,35.873
36.226,35.875
36.334,35.873
36.431,35.866
36.515,35.854
36.585,35.838
36.641,35.817
36.683,35.792
36.711,35.764
36.726,35.733
36.728,35.699
36.719,35.663
36.7,35.626
36.672,35.587
36.637,35.547
36.598,35.507
36.554,35.466
36.508,35.425
36.462,35.384
36.414,35.343
36.368,35.302
36.322,35.261
36.278,35.219
36.235,35.177
36.193,35.134
36.154,35.09
36.116,35.045
36.081,35
36.047,34.954
36.015,34.907
35.985,34.861
35.957,34.815
35.929,34.769
35.903,34.724
35.877,34.681
35.852,34.639
35.827,34.598
35.802,34.558
35.777,34.519
35.751,34.482
35.725,34.445
35.699,34.41
35.672,34.375
35.644,34.341
35.617,34.307
35.588,34.274
35.56,34.242
35.531,34.211
35.503,34.18
35.476,34.152
35.45,34.126
35.426,34.102
35.404,34.08
35.385,34.062
35.369,34.045
35.357,34.031
35.347,34.018
35.34,34.006
35.335,33.994
35.333,33.982
35.332,33.968
35.332,33.954
35.334,33.939
35.336,33.923
35.34,33.907
35.345,33.891
35.35,33.875
35.354,33.86
35.356,33.846
35.358,33.834
35.357,33.825
35.354,33.82
35.349,33.819
35.342,33.824
35.332,33.836
35.32,33.858
35.306,33.89
35.29,33.934
35.271,33.992
35.25,34.066
35.228,34.156
35.202,34.264
35.175,34.389
35.145,34.533
35.113,34.693
35.079,34.868
35.044,35.056
35.008,35.256
34.971,35.464
34.934,35.678
34.896,35.895
34.859,36.113
34.822,36.327
34.786,36.535
34.751,36.735
34.719,36.924
34.688,37.1
34.66,37.262
34.635,37.407
34.611,37.537
34.589,37.649
34.569,37.745
34.549,37.824
34.531,37.886
34.513,37.932
34.496,37.963
34.479,37.979
34.462,37.982
34.444,37.972
34.426,37.951
34.408,37.92
34.389,37.88
34.369,37.833
34.349,37.779
34.328,37.719
34.306,37.654
34.284,37.587
34.261,37.518
34.239,37.448
34.217,37.379
34.196,37.312
34.174,37.247
34.154,37.184
34.134,37.124
34.114,37.066
34.095,37.01
34.076,36.956
34.058,36.903
34.04,36.852
34.023,36.8
34.007,36.749
33.992,36.697
33.979,36.646
33.967,36.594
33.957,36.543
33.947,36.493
33.938,36.443
33.93,36.395
33.923,36.35
33.916,36.307
33.911,36.266
33.906,36.23
33.903,36.197
33.902,36.168
33.903,36.144
33.909,36.125
33.92,36.111
33.937,36.101
33.961,36.096
33.993,36.095
34.033,36.098
34.084,36.106
34.145,36.117
34.216,36.132
34.298,36.15
34.389,36.17
34.489,36.191
34.596,36.214
34.707,36.238
34.822,36.261
34.938,36.285
35.053,36.308
35.165,36.331
35.272,36.351
35.372,36.369
35.463,36.385
35.545,36.397
35.616,36.407
35.676,36.413
35.725,36.415
35.764,36.414
35.793,36.411
35.812,36.404
35.823,36.394
35.825,36.382
35.82,36.369
35.808,36.354
35.791,36.336
35.769,36.317
35.743,36.296
35.715,36.272
35.685,36.246
35.654,36.218
35.623,36.188
35.593,36.157
35.563,36.124
35.534,36.09
35.507,36.056
35.482,36.02
35.458,35.983
35.436,35.946
35.416,35.907
35.397,35.867
35.379,35.827
35.362,35.787
35.344,35.746
35.326,35.705
35.308,35.664
35.288,35.624
35.266,35.584
35.243,35.544
35.219,35.505
35.194,35.466
35.168,35.427
35.142,35.389
35.115,35.352
35.088,35.316
35.061,35.282
35.035,35.249
35.008,35.218
34.982,35.187
34.957,35.158
34.933,35.129
34.91,35.102
34.889,35.075
34.871,35.05
34.855,35.025
34.842,35.001
34.831,34.978
34.822,34.955
34.816,34.934
34.812,34.912
34.81,34.892
34.81,34.872
34.811,34.852
34.813,34.833
34.815,34.814
34.818,34.796
34.822,34.777
34.825,34.759
34.827,34.741
34.828,34.722
34.828,34.704
34.826,34.685
34.821,34.666
34.814,34.647
34.805,34.627
34.793,34.606
34.78,34.586
34.765,34.565
34.749,34.544
34.732,34.524
34.714,34.504
34.695,34.486
34.676,34.472
34.656,34.463
34.634,34.462
34.611,34.47
34.588,34.49
34.563,34.524
34.538,34.573
34.511,34.64
34.485,34.726
34.458,34.833
34.43,34.96
34.403,35.109
34.375,35.277
34.347,35.465
34.319,35.669
34.292,35.886
34.266,36.115
34.24,36.353
34.216,36.595
34.192,36.838
34.17,37.079
34.149,37.314
34.129,37.541
34.11,37.756
34.092,37.956
34.076,38.139
34.06,38.304
34.046,38.448
34.033,38.57
34.021,38.67
34.01,38.748
34.001,38.806
33.992,38.842
33.984,38.861
33.976,38.861
33.969,38.846
33.961,38.818
33.954,38.776
33.947,38.725
33.94,38.665
33.933,38.597
33.927,38.525
33.92,38.448
33.913,38.37
33.906,38.29
33.899,38.21
33.89,38.13
33.881,38.052
33.871,37.976
33.86,37.902
33.849,37.831
33.837,37.762
33.825,37.696
33.812,37.633
33.8,37.573
33.788,37.515
33.777,37.459
33.767,37.404
33.757,37.352
33.748,37.3
33.741,37.25
33.735,37.2
33.731,37.151
33.731,37.102
33.734,37.054
33.743,37.006
33.759,36.958
33.782,36.911
33.813,36.866
33.855,36.823
33.906,36.783
33.969,36.746
34.043,36.712
34.128,36.682
34.224,36.657
34.33,36.635
34.444,36.618
34.565,36.606
34.692,36.598
34.821,36.594
34.951,36.595
35.081,36.599
35.206,36.607
35.327,36.618
35.44,36.632
35.544,36.65
35.638,36.671
35.721,36.694
35.792,36.719
35.852,36.745
35.9,36.773
35.937,36.8
35.964,36.828
35.98,36.853
35.988,36.877
35.987,36.898
35.98,36.915
35.967,36.929
35.949,36.939
35.928,36.943
35.905,36.941
35.879,36.934
35.853,36.92
35.826,36.9
35.798,36.874
35.77,36.843
35.741,36.806
35.713,36.766
35.685,36.721
35.657,36.672
35.631,36.621
35.605,36.566
35.58,36.51
35.557,36.452
35.535,36.392
35.514,36.332
35.495,36.272
35.477,36.211
35.461,36.151
35.446,36.091
35.432,36.033
35.419,35.976
35.406,35.922
35.394,35.87
35.381,35.821
35.368,35.776
35.355,35.734
35.341,35.695
35.327,35.658
35.313,35.624
35.299,35.592
35.284,35.564
35.27,35.537
35.255,35.513
35.241,35.491
35.227,35.471
35.213,35.452
35.2,35.435
35.188,35.418
35.177,35.402
35.168,35.386
35.161,35.369
35.155,35.351
35.152,35.332
35.151,35.31
35.152,35.288
35.156,35.263
35.162,35.238
35.17,35.213
35.179,35.186
35.189,35.158
35.2,35.13
35.211,35.1
35.221,35.068
35.23,35.036
35.238,35.002
35.244,34.967
35.248,34.932
35.25,34.896
35.25,34.86
35.249,34.823
35.245,34.787
35.24,34.75
35.233,34.714
35.225,34.68
35.215,34.648
35.204,34.619
35.191,34.593
35.177,34.571
35.163,34.554
35.147,34.542
35.131,34.536
35.114,34.537
35.096,34.547
35.079,34.567
35.061,34.599
35.043,34.646
35.026,34.707
35.009,34.785
34.993,34.879
34.976,34.99
34.96,35.119
34.944,35.263
34.927,35.423
34.91,35.596
34.893,35.78
34.877,35.974
34.861,36.174
34.845,36.378
34.831,36.584
34.817,36.788
34.803,36.988
34.789,37.18
34.775,37.362
34.761,37.533
34.747,37.69
34.733,37.831
34.719,37.957
34.704,38.066
34.69,38.158
34.676,38.233
34.66,38.292
34.645,38.335
34.629,38.363
34.612,38.376
34.595,38.375
34.579,38.361
34.563,38.336
34.548,38.299
34.534,38.253
34.521,38.199
34.509,38.137
34.499,38.068
34.489,37.995
34.481,37.917
34.474,37.836
34.468,37.752
34.462,37.666
34.457,37.578
34.451,37.49
34.445,37.402
34.439,37.313
34.432,37.225
34.424,37.138
34.415,37.052
34.406,36.967
34.396,36.882
34.386,36.798
34.375,36.715
34.366,36.633
34.358,36.551
34.354,36.47
34.353,36.389
34.359,36.31
34.371,36.231
34.393,36.155
34.424,36.08
34.466,36.009
34.52,35.942
34.587,35.878
34.667,35.82
34.758,35.768
34.861,35.723
34.974,35.685
35.096,35.654
35.225,35.631
35.359,35.616
35.496,35.608
35.634,35.608
35.771,35.614
35.904,35.626
36.032,35.644
36.152,35.665
36.262,35.688
36.362,35.714
36.449,35.739
36.524,35.765
36.586,35.789
36.636,35.812
36.672,35.833
36.696,35.851
36.71,35.867
36.713,35.879
36.707,35.888
36.694,35.894
36.675,35.896
36.649,35.894
36.62,35.889
36.588,35.881
36.555,35.87
36.521,35.855
36.488,35.838
36.455,35.818
36.425,35.795
36.397,35.769
36.372,35.74
36.349,35.707
36.33,35.671
36.312,35.633
36.296,35.591
36.281,35.548
36.267,35.502
36.252,35.456
36.237,35.41
36.222,35.363
36.205,35.317
36.187,35.272
36.167,35.228
36.145,35.186
36.122,35.145
36.098,35.106
36.072,35.068
36.046,35.03
36.02,34.994
35.993,34.957
35.967,34.921
35.94,34.885
35.915,34.849
35.891,34.813
35.869,34.777
35.848,34.741
35.828,34.707
35.811,34.673
35.795,34.639
35.78,34.607
35.768,34.575
35.756,34.544
35.747,34.514
35.739,34.484
35.732,34.454
35.727,34.425
35.724,34.396
35.722,34.367
35.721,34.339
35.721,34.312
35.721,34.286
35.722,34.262
35.723,34.238
35.724,34.216
35.724,34.194
35.725,34.174
35.725,34.153
35.724,34.133
35.723,34.113
35.721,34.094
35.719,34.075
35.716,34.056
35.712,34.038
35.709,34.02
35.705,34.003
35.7,33.986
35.695,33.969
35.69,33.952
35.683,33.935
35.674,33.917
35.664,33.9
35.651,33.882
35.637,33.863
35.62,33.845
35.601,33.825
35.581,33.805
35.558,33.783
35.534,33.762
35.509,33.74
35.482,33.719
35.455,33.7
35.427,33.685
35.399,33.674
35.371,33.67
35.344,33.674
35.317,33.69
35.291,33.718
35.266,33.763
35.243,33.824
35.221,33.905
35.201,34.006
35.183,34.128
35.166,34.27
35.151,34.433
35.137,34.614
35.124,34.814
35.112,35.03
35.101,35.259
35.09,35.498
35.079,35.744
35.068,35.993
35.058,36.242
35.048,36.487
35.038,36.725
35.028,36.952
35.018,37.165
35.008,37.361
34.998,37.538
34.988,37.694
34.977,37.828
34.967,37.939
34.956,38.027
34.945,38.093
34.935,38.138
34.924,38.162
34.914,38.167
34.904,38.156
34.894,38.129
34.884,38.089
34.873,38.038
34.862,37.979
34.85,37.914
34.838,37.843
34.825,37.769
34.813,37.692
34.8,37.613
34.787,37.533
34.773,37.453
34.76,37.372
34.746,37.293
34.733,37.214
34.72,37.137
34.707,37.06
34.693,36.984
34.68,36.91
34.667,36.836
34.654,36.763
34.642,36.69
34.631,36.618
34.622,36.546
34.616,36.473
34.615,36.4
34.619,36.327
34.631,36.253
34.653,36.179
34.685,36.105
34.73,36.033
34.789,35.962
34.861,35.894
34.946,35.83
35.044,35.771
35.155,35.717
35.275,35.67
35.404,35.63
35.539,35.597
35.679,35.572
35.819,35.555
35.959,35.545
36.095,35.543
36.225,35.549
36.347,35.562
36.458,35.583
36.559,35.61
36.647,35.643
36.723,35.68
36.785,35.722
36.833,35.765
36.869,35.811
36.893,35.858
36.905,35.905
36.907,35.951
36.9,35.997
36.885,36.041
36.865,36.083
36.84,36.122
36.81,36.158
36.778,36.189
36.744,36.217
36.709,36.241
36.673,36.259
36.638,36.273
36.603,36.282
36.57,36.286
36.537,36.284
36.506,36.278
36.476,36.266
36.448,36.249
36.421,36.228
36.395,36.201
36.369,36.171
36.345,36.137
36.32,36.098
36.296,36.056
36.271,36.01
36.246,35.961
36.221,35.91
36.195,35.856
36.168,35.801
36.14,35.744
36.11,35.687
36.08,35.63
36.049,35.572
36.017,35.515
35.985,35.458
35.954,35.403
35.924,35.348
35.894,35.294
35.867,35.241
35.842,35.189
35.819,35.139
35.799,35.089
35.781,35.041
35.766,34.995
35.753,34.95
35.743,34.906
35.734,34.864
35.726,34.823
35.721,34.784
35.716,34.746
35.714,34.709
35.712,34.674
35.712,34.642
35.712,34.611
35.713,34.582
35.714,34.556
35.716,34.531
35.718,34.508
35.72,34.486
35.721,34.465
35.723,34.446
35.723,34.426
35.722,34.407
35.72,34.388
35.717,34.368
35.712,34.348
35.707,34.327
35.699,34.305
35.69,34.281
35.679,34.255
35.665,34.227
35.649,34.197
35.631,34.165
35.611,34.132
35.589,34.098
35.565,34.063
35.54,34.029
35.515,33.994
35.488,33.96
35.462,33.926
35.436,33.893
35.409,33.861
35.383,33.83
35.358,33.799
35.332,33.77
35.308,33.742
35.284,33.715
35.26,33.689
35.236,33.664
35.213,33.641
35.188,33.619
35.164,33.6
35.14,33.584
35.117,33.575
35.093,33.573
35.07,33.581
35.047,33.603
35.025,33.641
35.003,33.697
34.982,33.773
34.962,33.871
34.943,33.993
34.923,34.139
34.904,34.309
34.885,34.502
34.865,34.718
34.846,34.953
34.826,35.205
34.805,35.469
34.785,35.743
34.765,36.022
34.744,36.302
34.725,36.58
34.706,36.851
34.687,37.112
34.67,37.359
34.654,37.59
34.639,37.8
34.625,37.989
34.612,38.154
34.6,38.295
34.588,38.411
34.577,38.503
34.566,38.571
34.554,38.617
34.542,38.641
34.53,38.645
34.516,38.631
34.502,38.601
34.487,38.557
34.472,38.501
34.455,38.436
34.438,38.363
34.421,38.283
34.404,38.199
34.387,38.111
34.37,38.022
34.353,37.932
34.338,37.844
34.324,37.757
34.312,37.675
34.304,37.597
34.3,37.524
34.302,37.458
34.31,37.399
34.327,37.347
34.353,37.302
34.389,37.264
34.437,37.232
34.496,37.205
34.568,37.182
34.652,37.162
34.748,37.144
34.853,37.126
34.968,37.107
35.09,37.086
35.216,37.061
35.345,37.033
35.474,37.002
35.6,36.966
35.723,36.928
35.839,36.886
35.948,36.844
36.047,36.8
36.135,36.757
36.212,36.716
36.277,36.675
36.329,36.637
36.369,36.601
36.397,36.568
36.415,36.539
36.422,36.512
36.421,36.488
36.412,36.465
36.397,36.444
36.377,36.425
36.352,36.406
36.323,36.387
36.29,36.368
36.255,36.349
36.219,36.33
36.182,36.309
36.144,36.288
36.107,36.265
36.07,36.241
36.034,36.216
35.999,36.19
35.965,36.163
35.933,36.134
35.903,36.103
35.874,36.071
35.846,36.037
35.821,36.002
35.796,35.963
35.771,35.923
35.747,35.88
35.722,35.834
35.697,35.786
35.671,35.736
35.644,35.683
35.616,35.63
35.588,35.576
35.559,35.521
35.53,35.467
35.499,35.414
35.468,35.361
35.437,35.311
35.405,35.262
35.374,35.215
35.345,35.171
35.317,35.129
35.292,35.09
35.269,35.054
35.25,35.02
35.234,34.99
35.22,34.961
35.211,34.935
35.204,34.91
35.201,34.888
35.201,34.866
35.204,34.846
35.209,34.827
35.215,34.81
35.222,34.794
35.23,34.781
35.238,34.769
35.247,34.76
35.255,34.752
35.264,34.746
35.272,34.742
35.279,34.737
35.285,34.733
35.29,34.728
35.294,34.721
35.296,34.713
35.296,34.703
35.295,34.691
35.292,34.678
35.287,34.662
35.28,34.644
35.27,34.624
35.258,34.602
35.244,34.579
35.227,34.555
35.209,34.529
35.19,34.504
35.169,34.478
35.148,34.452
35.126,34.426
35.103,34.401
35.08,34.377
35.056,34.353
35.031,34.33
35.006,34.307
34.981,34.286
34.956,34.266
34.931,34.248
34.907,34.23
34.884,34.214
34.86,34.198
34.838,34.183
34.816,34.168
34.794,34.152
34.773,34.134
34.753,34.115
34.734,34.095
34.716,34.072
34.698,34.046
34.682,34.02
34.666,33.992
34.652,33.965
34.638,33.941
34.624,33.922
34.61,33.91
34.597,33.91
34.584,33.923
34.571,33.953
34.557,34.002
34.544,34.073
34.53,34.167
34.514,34.285
34.498,34.427
34.481,34.593
34.463,34.781
34.444,34.989
34.424,35.215
34.402,35.456
34.379,35.708
34.356,35.968
34.331,36.232
34.307,36.495
34.283,36.754
34.259,37.005
34.235,37.244
34.211,37.468
34.187,37.673
34.164,37.857
34.14,38.018
34.118,38.155
34.096,38.267
34.075,38.355
34.055,38.418
34.036,38.457
34.019,38.475
34.005,38.473
33.994,38.452
33.987,38.417
33.985,38.368
33.99,38.308
34.002,38.24
34.023,38.166
34.054,38.088
34.096,38.008
34.15,37.927
34.217,37.845
34.298,37.765
34.392,37.687
34.498,37.612
34.617,37.541
34.745,37.473
34.882,37.409
35.026,37.349
35.174,37.291
35.325,37.235
35.475,37.18
35.622,37.126
35.764,37.071
35.898,37.015
36.022,36.957
36.136,36.897
36.236,36.833
36.324,36.766
36.397,36.697
36.457,36.625
36.503,36.551
36.535,36.476
36.555,36.401
36.563,36.327
36.56,36.255
36.548,36.185
36.528,36.119
36.502,36.058
36.471,36.004
36.436,35.955
36.398,35.914
36.359,35.881
36.319,35.854
36.278,35.835
36.238,35.824
36.199,35.819
36.161,35.819
36.124,35.826
36.09,35.836
36.057,35.85
36.027,35.867
35.999,35.886
35.973,35.906
35.948,35.928
35.925,35.949
35.902,35.969
35.88,35.988
35.858,36.004
35.834,36.016
35.81,36.025
35.783,36.03
35.756,36.031
35.726,36.028
35.696,36.022
35.664,36.012
35.631,35.998
35.598,35.98
35.564,35.959
35.531,35.935
35.498,35.909
35.467,35.88
35.438,35.848
35.411,35.815
35.387,35.78
35.365,35.743
35.346,35.703
35.329,35.662
35.314,35.619
35.303,35.575
35.294,35.528
35.288,35.48
35.286,35.431
35.287,35.381
35.291,35.331
35.299,35.28
35.31,35.229
35.324,35.178
35.34,35.127
35.358,35.076
35.378,35.026
35.397,34.976
35.416,34.927
35.434,34.879
35.449,34.833
35.463,34.788
35.474,34.743
35.481,34.7
35.486,34.657
35.488,34.615
35.486,34.573
35.482,34.533
35.475,34.494
35.466,34.456
35.455,34.42
35.442,34.387
35.426,34.354
35.408,34.324
35.388,34.295
35.366,34.267
35.342,34.24
35.317,34.214
35.292,34.189
35.266,34.164
35.241,34.141
35.217,34.117
35.193,34.094
35.171,34.072
35.151,34.049
35.132,34.025
35.114,34.001
35.098,33.976
35.083,33.951
35.069,33.924
35.055,33.897
35.042,33.869
35.029,33.84
35.016,33.811
35.003,33.781
34.99,33.752
34.977,33.724
34.964,33.696
34.95,33.668
34.936,33.642
34.921,33.617
34.905,33.593
34.888,33.57
34.869,33.546
34.85,33.523
34.829,33.501
34.807,33.478
34.786,33.456
34.764,33.434
34.743,33.413
34.722,33.394
34.703,33.376
34.685,33.36
34.668,33.349
34.652,33.344
34.638,33.346
34.625,33.359
34.613,33.385
34.602,33.425
34.593,33.483
34.585,33.56
34.579,33.658
34.574,33.777
34.569,33.918
34.564,34.081
34.559,34.265
34.552,34.468
34.546,34.689
34.538,34.924
34.53,35.172
34.523,35.427
34.516,35.688
34.513,35.949
34.514,36.209
34.52,36.462
34.535,36.706
34.559,36.938
34.593,37.154
34.64,37.352
34.699,37.531
34.771,37.688
34.855,37.822
34.951,37.934
35.059,38.022
35.177,38.089
35.302,38.134
35.434,38.159
35.57,38.165
35.707,38.154
35.843,38.128
35.976,38.087
36.103,38.035
36.224,37.972
36.337,37.899
36.439,37.818
36.531,37.732
36.612,37.641
36.68,37.547
36.737,37.451
36.781,37.354
36.813,37.257
36.833,37.161
36.843,37.066
36.844,36.974
36.836,36.884
36.82,36.796
36.798,36.711
36.771,36.63
36.74,36.551
36.705,36.475
36.667,36.401
36.626,36.329
36.584,36.257
36.542,36.187
36.5,36.117
36.459,36.048
36.42,35.98
36.383,35.912
36.348,35.844
36.315,35.777
36.285,35.712
36.257,35.648
36.231,35.585
36.206,35.525
36.182,35.469
36.16,35.416
36.138,35.368
36.116,35.326
36.094,35.289
36.071,35.258
36.047,35.234
36.022,35.217
35.995,35.207
35.968,35.202
35.941,35.204
35.913,35.212
35.886,35.224
35.86,35.241
35.835,35.26
35.811,35.281
35.788,35.304
35.766,35.328
35.746,35.351
35.727,35.374
35.71,35.396
35.696,35.417
35.683,35.435
35.674,35.451
35.667,35.465
35.664,35.476
35.663,35.485
35.665,35.492
35.669,35.496
35.675,35.497
35.682,35.495
35.692,35.489
35.702,35.481
35.714,35.469
35.725,35.454
35.737,35.436
35.747,35.416
35.755,35.393
35.762,35.368
35.765,35.341
35.766,35.313
35.763,35.283
35.758,35.252
35.749,35.219
35.738,35.186
35.724,35.152
35.708,35.116
35.691,35.079
35.673,35.04
35.653,34.999
35.634,34.957
35.614,34.912
35.594,34.866
35.574,34.817
35.554,34.767
35.534,34.716
35.516,34.665
35.497,34.613
35.48,34.562
35.463,34.512
35.445,34.462
35.428,34.413
35.41,34.365
35.391,34.318
35.371,34.273
35.349,34.228
35.327,34.183
35.302,34.14
35.277,34.099
35.252,34.059
35.226,34.022
35.2,33.986
35.175,33.952
35.151,33.92
35.128,33.89
35.106,33.862
35.084,33.836
35.064,33.812
35.044,33.79
35.025,33.767
35.007,33.746
34.989,33.725
34.972,33.704
34.955,33.683
34.938,33.663
34.92,33.644
34.903,33.626
34.885,33.609
34.866,33.593
34.848,33.578
34.828,33.563
34.808,33.549
34.788,33.535
34.767,33.52
34.745,33.506
34.724,33.491
34.702,33.477
34.681,33.462
34.661,33.447
34.641,33.432
34.622,33.417
34.603,33.401
34.586,33.385
34.57,33.368
34.557,33.351
34.547,33.331
34.541,33.311
34.542,33.289
34.55,33.266
34.567,33.243
34.594,33.219
34.632,33.196
34.681,33.173
34.741,33.153
34.813,33.135
34.896,33.123
34.989,33.118
35.09,33.122
35.198,33.136
35.312,33.164
35.43,33.207
35.55,33.269
35.671,33.35
35.79,33.454
35.907,33.581
36.019,33.732
36.124,33.907
36.222,34.105
36.31,34.326
36.387,34.567
36.454,34.825
36.508,35.099
36.551,35.384
36.582,35.677
36.602,35.974
36.612,36.27
36.613,36.561
36.607,36.844
36.595,37.114
36.577,37.368
36.554,37.602
36.528,37.815
36.499,38.006
36.466,38.172
36.432,38.314
36.397,38.433
36.361,38.527
36.324,38.599
36.287,38.649
36.25,38.677
36.212,38.687
36.175,38.678
36.139,38.655
36.102,38.617
36.067,38.569
36.031,38.51
35.996,38.444
35.962,38.371
35.928,38.293
35.893,38.211
35.859,38.126
35.824,38.039
35.79,37.953
35.757,37.867
35.724,37.783
35.691,37.702
35.66,37.624
35.629,37.55
35.6,37.479
35.572,37.412
35.547,37.348
35.523,37.288
35.501,37.232
35.481,37.178
35.463,37.126
35.446,37.075
35.432,37.024
35.419,36.972
35.408,36.919
35.399,36.864
35.392,36.809
35.386,36.751
35.382,36.693
35.379,36.634
35.377,36.575
35.376,36.515
35.377,36.456
35.378,36.398
35.38,36.342
35.382,36.287
35.385,36.236
35.387,36.188
35.39,36.143
35.391,36.102
35.392,36.066
35.392,36.034
35.391,36.006
35.389,35.982
35.386,35.961
35.382,35.944
35.377,35.931
35.371,35.92
35.362,35.912
35.352,35.907
35.339,35.904
35.323,35.903
35.306,35.905
35.288,35.908
35.268,35.914
35.248,35.92
35.227,35.927
35.206,35.934
35.184,35.939
35.161,35.944
35.138,35.947
35.114,35.949
35.089,35.949
35.063,35.948
35.036,35.944
35.008,35.938
34.978,35.93
34.948,35.918
34.917,35.904
34.885,35.886
34.853,35.865
34.822,35.84
34.791,35.811
34.762,35.779
34.734,35.743
34.707,35.703
34.683,35.659
34.661,35.611
34.641,35.56
34.623,35.505
34.606,35.448
34.592,35.389
34.578,35.329
34.566,35.268
34.555,35.207
34.545,35.147
34.534,35.088
34.524,35.03
34.514,34.975
34.504,34.921
34.493,34.87
34.481,34.821
34.469,34.775
34.456,34.731
34.442,34.69
34.426,34.651
34.41,34.614
34.391,34.58
34.372,34.549
34.351,34.519
34.33,34.492
34.308,34.466
34.286,34.44
34.264,34.416
34.244,34.392
34.226,34.368
34.211,34.345
34.201,34.321
34.196,34.298
34.199,34.275
34.211,34.251
34.233,34.228
34.268,34.203
34.314,34.18
34.374,34.156
34.446,34.134
34.53,34.113
34.625,34.094
34.728,34.077
34.838,34.062
34.954,34.048
35.073,34.035
35.192,34.023
35.311,34.011
35.427,34
35.538,33.989
35.643,33.978
35.739,33.968
35.826,33.957
35.903,33.946
35.968,33.935
36.023,33.923
36.067,33.91
36.101,33.896
36.124,33.882
36.138,33.867
36.142,33.852
36.138,33.836
36.127,33.821
36.11,33.806
36.087,33.79
36.06,33.775
36.029,33.76
35.996,33.745
35.96,33.731
35.924,33.719
35.887,33.708
35.85,33.702
35.814,33.702
35.779,33.709
35.746,33.727
35.714,33.757
35.684,33.802
35.655,33.864
35.628,33.946
35.602,34.049
35.577,34.173
35.552,34.321
35.528,34.491
35.502,34.685
35.476,34.9
35.449,35.136
35.42,35.391
35.389,35.66
35.357,35.942
35.323,36.233
35.289,36.529
35.255,36.826
35.221,37.12
35.188,37.406
35.156,37.681
35.125,37.941
35.097,38.184
35.07,38.406
35.046,38.606
35.025,38.783
35.006,38.935
34.99,39.063
34.977,39.168
34.966,39.249
34.958,39.308
34.952,39.347
34.948,39.366
34.946,39.368
34.945,39.354
34.946,39.327
34.947,39.288
34.949,39.239
34.951,39.182
34.952,39.118
34.954,39.05
34.956,38.978
34.958,38.903
34.959,38.828
34.96,38.753
34.961,38.679
34.962,38.607
34.961,38.539
34.96,38.474
34.958,38.412
34.955,38.354
34.951,38.299
34.946,38.247
34.938,38.197
34.929,38.15
34.918,38.104
34.904,38.058
34.889,38.013
34.873,37.969
34.855,37.924
34.836,37.879
34.815,37.832
34.794,37.784
34.771,37.733
34.747,37.682
34.722,37.628
34.696,37.573
34.669,37.517
34.64,37.46
34.612,37.401
34.583,37.343
34.555,37.284
34.527,37.227
34.499,37.171
34.473,37.117
34.447,37.067
34.422,37.021
34.398,36.979
34.375,36.941
34.355,36.908
34.337,36.879
34.32,36.855
34.306,36.834
34.294,36.816
34.283,36.801
34.274,36.79
34.266,36.78
34.258,36.772
34.252,36.765
34.245,36.758
34.239,36.752
34.233,36.746
34.226,36.739
34.217,36.732
34.207,36.722
34.195,36.71
34.181,36.697
34.166,36.68
34.149,36.661
34.131,36.639
34.112,36.613
34.093,36.584
34.073,36.552
34.054,36.517
34.035,36.478
34.017,36.437
33.999,36.394
33.983,36.348
33.969,36.3
33.959,36.251
33.952,36.199
33.951,36.147
33.957,36.093
33.972,36.037
33.995,35.98
34.03,35.922
34.076,35.863
34.134,35.803
34.205,35.742
34.287,35.68
34.381,35.618
34.486,35.556
34.6,35.494
34.722,35.433
34.852,35.374
34.985,35.315
35.121,35.259
35.256,35.203
35.389,35.149
35.516,35.096
35.636,35.044
35.747,34.995
35.847,34.947
35.937,34.9
36.014,34.855
36.08,34.811
36.135,34.768
36.178,34.725
36.211,34.682
36.233,34.64
36.246,34.598
36.251,34.557
36.249,34.516
36.24,34.477
36.226,34.439
36.207,34.402
36.184,34.366
36.158,34.332
36.13,34.3
36.1,34.269
36.069,34.239
36.038,34.21
36.007,34.182
35.975,34.156
35.944,34.13
35.914,34.106
35.884,34.083
35.854,34.06
35.825,34.038
35.796,34.016
35.767,33.994
35.739,33.972
35.711,33.952
35.684,33.932
35.656,33.912
35.628,33.894
35.6,33.877
35.572,33.86
35.544,33.844
35.516,33.828
35.487,33.811
35.458,33.795
35.429,33.779
35.4,33.764
35.371,33.75
35.343,33.737
35.316,33.724
35.291,33.712
35.267,33.701
35.245,33.691
35.226,33.683
35.21,33.676
35.196,33.671
35.185,33.666
35.176,33.663
35.169,33.659
35.164,33.656
35.161,33.651
35.16,33.645
35.159,33.637
35.159,33.626
35.16,33.613
35.161,33.597
35.163,33.578
35.165,33.556
35.167,33.532
35.17,33.506
35.172,33.479
35.173,33.452
35.174,33.426
35.175,33.402
35.175,33.381
35.174,33.365
35.173,33.355
35.17,33.354
35.167,33.364
35.163,33.388
35.157,33.428
35.149,33.486
35.14,33.564
35.13,33.664
35.119,33.786
35.107,33.932
35.094,34.101
35.081,34.293
35.067,34.505
35.052,34.736
35.037,34.984
35.021,35.246
35.004,35.517
34.986,35.794
34.968,36.074
34.951,36.351
34.933,36.624
34.917,36.888
34.9,37.139
34.885,37.376
34.869,37.594
34.855,37.794
34.84,37.971
34.826,38.125
34.812,38.256
34.799,38.363
34.785,38.448
34.772,38.511
34.76,38.554
34.748,38.578
34.736,38.586
34.724,38.577
34.712,38.556
34.699,38.522
34.687,38.479
34.673,38.427
34.659,38.369
34.645,38.305
34.63,38.239
34.614,38.17
34.598,38.101
34.583,38.031
34.568,37.961
34.552,37.892
34.538,37.825
34.523,37.76
34.51,37.698
34.497,37.638
34.485,37.582
34.474,37.529
34.463,37.479
34.454,37.432
34.445,37.387
34.437,37.346
34.43,37.307
34.423,37.27
34.418,37.234
34.414,37.199
34.414,37.165
34.418,37.13
34.428,37.094
34.445,37.056
34.47,37.015
34.506,36.972
34.551,36.927
34.608,36.879
34.677,36.83
34.758,36.779
34.85,36.728
34.954,36.677
35.066,36.626
35.187,36.576
35.314,36.527
35.445,36.48
35.578,36.435
35.71,36.393
35.839,36.353
35.962,36.315
36.078,36.279
36.184,36.245
36.281,36.213
36.366,36.183
36.439,36.154
36.5,36.127
36.549,36.101
36.586,36.078
36.612,36.055
36.628,36.033
36.634,36.012
36.632,35.99
36.623,35.968
36.607,35.946
36.586,35.923
36.561,35.9
36.533,35.875
36.502,35.849
36.469,35.822
36.435,35.794
36.4,35.764
36.364,35.732
36.328,35.699
36.294,35.664
36.26,35.629
36.227,35.593
36.197,35.557
36.168,35.52
36.141,35.481
36.115,35.442
36.091,35.401
36.067,35.36
36.043,35.316
36.02,35.271
35.997,35.225
35.973,35.177
35.949,35.127
35.924,35.076
35.898,35.023
35.871,34.97
35.843,34.917
35.815,34.864
35.785,34.812
35.755,34.761
35.725,34.711
35.695,34.663
35.665,34.617
35.635,34.573
35.607,34.531
35.579,34.49
35.553,34.451
35.528,34.415
35.506,34.38
35.486,34.347
35.469,34.317
35.456,34.29
35.446,34.265
35.441,34.244
35.439,34.227
35.441,34.214
35.446,34.204
35.453,34.199
35.462,34.199
35.474,34.203
35.486,34.212
35.5,34.224
35.514,34.24
35.527,34.259
35.54,34.28
35.551,34.302
35.56,34.324
35.567,34.345
35.571,34.366
35.573,34.384
35.572,34.401
35.568,34.415
35.56,34.427
35.549,34.437
35.536,34.444
35.519,34.448
35.5,34.45
35.479,34.45
35.457,34.449
35.434,34.446
35.409,34.442
35.385,34.439
35.361,34.436
35.338,34.434
35.314,34.434
35.291,34.436
35.269,34.441
35.246,34.447
35.225,34.455
35.204,34.464
35.185,34.472
35.166,34.479
35.15,34.484
35.134,34.486
35.119,34.484
35.106,34.476
35.093,34.462
35.081,34.442
35.068,34.415
35.055,34.381
35.042,34.341
35.028,34.294
35.014,34.242
34.999,34.183
34.985,34.119
34.969,34.051
34.954,33.979
34.938,33.904
34.921,33.828
34.904,33.752
34.886,33.676
34.868,33.604
34.85,33.536
34.831,33.474
34.811,33.42
34.791,33.375
34.771,33.342
34.751,33.322
34.731,33.317
34.711,33.33
34.692,33.362
34.673,33.415
34.655,33.492
34.638,33.593
34.622,33.721
34.609,33.875
34.598,34.056
34.591,34.265
34.587,34.5
34.589,34.759
34.596,35.04
34.61,35.339
34.632,35.653
34.662,35.979
34.702,36.311
34.752,36.646
34.812,36.978
34.882,37.306
34.962,37.623
35.051,37.928
35.149,38.216
35.254,38.485
35.366,38.733
35.481,38.959
35.598,39.16
35.716,39.337
35.831,39.488
35.941,39.614
36.046,39.713
36.143,39.787
36.232,39.836
36.311,39.86
36.381,39.859
36.441,39.834
36.491,39.786
36.53,39.715
36.559,39.623
36.579,39.51
36.589,39.377
36.591,39.226
36.583,39.059
36.569,38.878
36.548,38.686
36.521,38.486
36.49,38.281
36.455,38.075
36.416,37.872
36.375,37.674
36.333,37.485
36.292,37.307
36.251,37.142
36.211,36.991
36.173,36.857
36.137,36.738
36.103,36.635
36.072,36.546
36.042,36.471
36.015,36.407
35.988,36.355
35.963,36.312
35.938,36.278
35.913,36.251
35.886,36.23
35.859,36.215
35.829,36.205
35.797,36.2
35.763,36.203
35.726,36.212
35.688,36.229
35.649,36.256
35.609,36.292
35.568,36.338
35.528,36.393
35.489,36.458
35.452,36.53
35.417,36.609
35.384,36.694
35.355,36.783
35.331,36.875
35.31,36.968
35.295,37.059
35.283,37.147
35.276,37.23
35.271,37.306
35.27,37.373
35.271,37.431
35.273,37.476
35.278,37.508
35.283,37.527
35.288,37.531
35.294,37.52
35.299,37.494
35.303,37.452
35.306,37.394
35.307,37.322
35.307,37.235
35.306,37.134
35.304,37.022
35.301,36.898
35.298,36.765
35.294,36.625
35.29,36.479
35.285,36.33
35.279,36.18
35.272,36.03
35.263,35.884
35.253,35.743
35.241,35.609
35.227,35.483
35.211,35.366
35.192,35.259
35.172,35.161
35.151,35.073
35.128,34.993
35.104,34.921
35.08,34.857
35.056,34.8
35.032,34.748
35.009,34.704
34.986,34.665
34.964,34.633
34.944,34.608
34.924,34.591
34.906,34.582
34.889,34.582
34.872,34.592
34.855,34.612
34.84,34.642
34.824,34.682
34.809,34.731
34.794,34.789
34.779,34.854
34.763,34.927
34.747,35.005
34.73,35.086
34.714,35.169
34.696,35.251
34.679,35.331
34.66,35.405
34.641,35.473
34.622,35.533
34.601,35.581
34.58,35.618
34.558,35.64
34.536,35.648
34.514,35.641
34.492,35.619
34.471,35.582
34.45,35.532
34.43,35.468
34.41,35.393
34.391,35.307
34.374,35.212
34.356,35.11
34.34,35.002
34.324,34.89
34.309,34.776
34.295,34.661
34.282,34.546
34.27,34.433
34.261,34.323
34.255,34.216
34.255,34.113
34.261,34.014
34.276,33.919
34.299,33.829
34.334,33.742
34.379,33.659
34.436,33.579
34.505,33.502
34.584,33.427
34.674,33.354
34.774,33.284
34.881,33.215
34.995,33.148
35.114,33.083
35.236,33.02
35.357,32.959
35.477,32.901
35.592,32.846
35.702,32.796
35.804,32.751
35.898,32.711
35.982,32.678
36.055,32.653
36.118,32.637
36.169,32.63
36.21,32.634
36.24,32.649
36.26,32.677
36.27,32.718
36.271,32.773
36.265,32.843
36.252,32.929
36.232,33.031
36.207,33.149
36.177,33.285
36.144,33.437
36.108,33.607
36.071,33.793
36.032,33.997
35.993,34.215
35.953,34.447
35.914,34.691
35.875,34.945
35.837,35.205
35.799,35.468
35.763,35.732
35.726,35.992
35.69,36.246
35.655,36.49
35.62,36.721
35.585,36.934
35.551,37.126
35.517,37.296
35.483,37.439
35.45,37.555
35.418,37.643
35.387,37.701
35.356,37.731
35.326,37.732
35.297,37.706
35.267,37.655
35.239,37.58
35.211,37.486
35.183,37.375
35.157,37.25
35.131,37.114
35.107,36.97
35.084,36.821
35.063,36.668
35.043,36.514
35.025,36.359
35.009,36.206
34.995,36.055
34.984,35.907
34.975,35.763
34.968,35.622
34.964,35.486
34.963,35.352
34.964,35.223
34.967,35.097
34.971,34.975
34.977,34.855
34.984,34.74
34.99,34.628
34.998,34.519
35.005,34.414
35.011,34.314
35.016,34.219
35.02,34.129
35.021,34.046
35.021,33.97
35.019,33.903
35.015,33.844
35.01,33.795
35.002,33.756
34.993,33.727
34.982,33.709
34.969,33.701
34.956,33.704
34.94,33.718
34.924,33.742
34.907,33.776
34.89,33.82
34.872,33.873
34.853,33.935
34.834,34.004
34.814,34.081
34.793,34.165
34.771,34.254
34.749,34.347
34.727,34.443
34.704,34.541
34.681,34.637
34.659,34.732
34.636,34.824
34.614,34.911
34.591,34.992
34.569,35.065
34.548,35.131
34.527,35.187
34.507,35.233
34.488,35.269
34.468,35.293
34.448,35.307
34.428,35.309
34.408,35.3
34.388,35.28
34.367,35.248
34.347,35.207
34.327,35.155
34.308,35.094
34.289,35.024
34.27,34.946
34.253,34.86
34.237,34.768
34.222,34.672
34.208,34.572
34.195,34.471
34.183,34.368
34.171,34.265
34.158,34.161
34.145,34.059
34.13,33.959
34.115,33.86
34.1,33.763
34.084,33.669
34.067,33.577
34.051,33.488
34.035,33.402
34.021,33.318
34.01,33.238
34.003,33.16
34,33.085
34.003,33.013
34.015,32.943
34.035,32.876
34.067,32.811
34.11,32.75
34.165,32.691
34.233,32.636
34.314,32.586
34.406,32.541
34.51,32.502
34.624,32.47
34.745,32.446
34.872,32.428
35.001,32.419
35.132,32.418
35.262,32.425
35.389,32.441
35.511,32.464
35.627,32.495
35.735,32.533
35.832,32.578
35.918,32.628
35.992,32.682
36.053,32.74
36.103,32.8
36.14,32.862
36.165,32.924
36.181,32.985
36.187,33.045
36.185,33.103
36.176,33.159
36.162,33.211
36.143,33.26
36.121,33.305
36.096,33.346
36.069,33.382
36.041,33.414
36.013,33.441
35.984,33.464
35.956,33.483
35.928,33.497
35.9,33.507
35.873,33.513
35.846,33.516
35.819,33.514
35.792,33.508
35.765,33.498
35.739,33.484
35.712,33.465
35.685,33.442
35.659,33.414
35.632,33.381
35.605,33.342
35.578,33.298
35.551,33.249
35.524,33.195
35.497,33.136
35.469,33.073
35.441,33.006
35.412,32.936
35.383,32.866
35.353,32.796
35.323,32.729
35.294,32.665
35.265,32.608
35.238,32.56
35.212,32.524
35.187,32.501
35.165,32.495
35.145,32.508
35.127,32.541
35.111,32.597
35.098,32.675
35.089,32.777
35.082,32.903
35.079,33.052
35.079,33.222
35.081,33.412
35.086,33.621
35.093,33.846
35.102,34.083
35.112,34.33
35.123,34.584
35.133,34.84
35.143,35.094
35.152,35.344
35.16,35.586
35.166,35.818
35.17,36.036
35.172,36.239
35.172,36.425
35.169,36.592
35.164,36.739
35.156,36.867
35.146,36.974
35.134,37.061
35.121,37.129
35.107,37.179
35.091,37.21
35.073,37.225
35.056,37.225
35.037,37.209
35.018,37.181
34.999,37.14
34.98,37.089
34.961,37.028
34.942,36.96
34.922,36.885
34.903,36.805
34.884,36.721
34.866,36.634
34.848,36.544
34.831,36.454
34.815,36.363
34.8,36.272
34.785,36.182
34.771,36.094
34.757,36.007
34.744,35.922
34.731,35.838
34.72,35.756
34.709,35.674
34.697,35.594
34.686,35.515
34.673,35.436
34.659,35.358
34.645,35.281
34.629,35.206
34.613,35.131
34.595,35.058
34.576,34.987
34.557,34.917
34.536,34.851
34.516,34.786
34.495,34.725
34.474,34.666
34.453,34.612
34.433,34.561
34.415,34.515
34.398,34.475
34.381,34.441
34.366,34.413
34.352,34.393
34.338,34.38
34.324,34.373
34.309,34.374
34.295,34.381
34.281,34.395
34.268,34.415
34.256,34.44
34.246,34.471
34.24,34.506
34.239,34.544
34.246,34.584
34.26,34.624
34.285,34.665
34.32,34.705
34.368,34.743
34.428,34.778
34.502,34.811
34.59,34.839
34.689,34.863
34.8,34.883
34.921,34.898
35.05,34.908
35.185,34.913
35.323,34.914
35.462,34.909
35.6,34.9
35.734,34.886
35.861,34.868
35.98,34.846
36.09,34.821
36.187,34.792
36.273,34.761
36.345,34.727
36.403,34.692
36.449,34.655
36.483,34.616
36.505,34.577
36.517,34.536
36.52,34.495
36.515,34.454
36.503,34.412
36.486,34.371
36.465,34.331
36.441,34.292
36.414,34.253
36.386,34.215
36.358,34.178
36.329,34.141
36.301,34.104
36.273,34.068
36.245,34.033
36.219,33.998
36.193,33.965
36.169,33.932
36.145,33.901
36.121,33.87
36.098,33.84
36.076,33.81
36.055,33.782
36.033,33.754
36.012,33.728
35.99,33.702
35.967,33.677
35.942,33.653
35.914,33.63
35.884,33.608
35.851,33.587
35.815,33.566
35.778,33.546
35.739,33.526
35.699,33.506
35.658,33.485
35.618,33.464
35.579,33.443
35.541,33.421
35.504,33.4
35.471,33.379
35.44,33.357
35.413,33.335
35.389,33.313
35.369,33.291
35.352,33.27
35.339,33.248
35.329,33.227
35.323,33.207
35.318,33.187
35.316,33.169
35.315,33.151
35.316,33.134
35.318,33.119
35.321,33.104
35.325,33.091
35.329,33.078
35.334,33.066
35.34,33.055
35.345,33.045
35.35,33.039
35.353,33.035
35.355,33.037
35.356,33.046
35.356,33.064
35.354,33.092
35.35,33.134
35.344,33.192
35.337,33.268
35.328,33.363
35.316,33.48
35.303,33.618
35.288,33.779
35.271,33.962
35.252,34.165
35.232,34.388
35.211,34.628
35.189,34.881
35.166,35.145
35.142,35.414
35.118,35.686
35.095,35.957
35.071,36.221
35.048,36.476
35.026,36.718
35.004,36.944
34.984,37.15
34.964,37.335
34.946,37.497
34.929,37.636
34.914,37.751
34.899,37.842
34.887,37.91
34.875,37.957
34.864,37.983
34.854,37.99
34.844,37.98
34.833,37.953
34.823,37.912
34.812,37.859
34.8,37.796
34.789,37.724
34.776,37.644
34.763,37.558
34.748,37.468
34.732,37.373
34.715,37.276
34.697,37.175
34.679,37.074
34.66,36.97
34.641,36.867
34.623,36.764
34.605,36.661
34.588,36.56
34.571,36.459
34.555,36.361
34.539,36.265
34.523,36.17
34.507,36.079
34.491,35.989
34.475,35.902
34.458,35.816
34.442,35.732
34.425,35.649
34.409,35.567
34.394,35.485
34.381,35.405
34.372,35.325
34.369,35.246
34.373,35.168
34.386,35.091
34.408,35.016
34.442,34.942
34.488,34.871
34.547,34.802
34.618,34.738
34.701,34.677
34.795,34.622
34.899,34.573
35.011,34.529
35.13,34.492
35.253,34.463
35.378,34.44
35.502,34.424
35.624,34.413
35.741,34.409
35.85,34.41
35.951,34.415
36.042,34.424
36.123,34.437
36.193,34.452
36.252,34.469
36.3,34.487
36.339,34.505
36.367,34.523
36.386,34.539
36.397,34.555
36.4,34.569
36.396,34.581
36.385,34.59
36.37,34.598
36.35,34.604
36.328,34.607
36.303,34.607
36.277,34.605
36.249,34.6
36.221,34.592
36.193,34.58
36.165,34.566
36.138,34.549
36.11,34.529
36.083,34.506
36.056,34.48
36.031,34.452
36.006,34.42
35.983,34.386
35.96,34.35
35.938,34.311
35.916,34.269
35.894,34.226
35.872,34.181
35.849,34.134
35.825,34.085
35.8,34.035
35.773,33.984
35.745,33.931
35.715,33.879
35.685,33.826
35.655,33.774
35.624,33.723
35.594,33.672
35.564,33.622
35.536,33.573
35.509,33.525
35.484,33.477
35.461,33.431
35.44,33.384
35.422,33.339
35.406,33.293
35.393,33.248
35.383,33.203
35.376,33.159
35.371,33.116
35.368,33.073
35.366,33.032
35.366,32.991
35.367,32.951
35.369,32.911
35.371,32.873
35.373,32.836
35.375,32.8
35.377,32.766
35.378,32.733
35.378,32.701
35.376,32.67
35.372,32.639
35.366,32.608
35.359,32.577
35.35,32.546
35.341,32.515
35.33,32.484
35.319,32.454
35.308,32.423
35.295,32.393
35.283,32.363
35.27,32.333
35.256,32.303
35.242,32.272
35.228,32.242
35.212,32.211
35.196,32.181
35.178,32.151
35.158,32.124
35.137,32.098
35.115,32.076
35.091,32.058
35.068,32.045
35.045,32.04
35.023,32.044
35.001,32.06
34.98,32.088
34.959,32.133
34.939,32.195
34.919,32.276
34.901,32.38
34.883,32.505
34.865,32.654
34.848,32.826
34.831,33.02
34.815,33.236
34.798,33.47
34.78,33.72
34.762,33.983
34.744,34.256
34.725,34.534
34.706,34.814
34.686,35.091
34.665,35.362
34.644,35.622
34.623,35.869
34.601,36.099
34.578,36.31
34.555,36.5
34.532,36.669
34.508,36.815
34.485,36.938
34.461,37.038
34.438,37.116
34.415,37.173
34.393,37.209
34.371,37.227
34.351,37.228
34.332,37.214
34.314,37.187
34.297,37.149
34.283,37.101
34.27,37.045
34.258,36.982
34.25,36.915
34.244,36.844
34.241,36.772
34.243,36.698
34.25,36.624
34.265,36.55
34.287,36.477
34.318,36.405
34.358,36.335
34.408,36.266
34.468,36.199
34.538,36.134
34.617,36.07
34.705,36.009
34.801,35.95
34.902,35.892
35.007,35.837
35.114,35.785
35.22,35.734
35.323,35.684
35.422,35.636
35.514,35.588
35.598,35.541
35.673,35.492
35.739,35.443
35.795,35.392
35.839,35.339
35.874,35.285
35.898,35.228
35.912,35.17
35.917,35.11
35.915,35.048
35.905,34.985
35.89,34.922
35.871,34.86
35.849,34.8
35.825,34.741
35.801,34.686
35.776,34.635
35.751,34.588
35.727,34.545
35.702,34.508
35.678,34.474
35.654,34.446
35.63,34.422
35.606,34.402
35.582,34.385
35.557,34.371
35.531,34.358
35.505,34.347
35.478,34.336
35.449,34.325
35.42,34.315
35.39,34.304
35.358,34.294
35.325,34.283
35.291,34.273
35.257,34.263
35.222,34.254
35.188,34.244
35.153,34.234
35.12,34.224
35.087,34.213
35.056,34.202
35.026,34.19
34.998,34.176
34.973,34.161
34.95,34.145
34.929,34.127
34.911,34.106
34.895,34.084
34.881,34.059
34.869,34.032
34.86,34.003
34.853,33.971
34.847,33.937
34.843,33.901
34.84,33.862
34.839,33.822
34.838,33.781
34.838,33.739
34.839,33.697
34.84,33.655
34.842,33.614
34.845,33.574
34.847,33.534
34.849,33.496
34.851,33.459
34.852,33.422
34.852,33.386
34.852,33.35
34.851,33.314
34.85,33.278
34.847,33.241
34.843,33.204
34.838,33.166
34.831,33.126
34.823,33.086
34.813,33.045
34.802,33.004
34.79,32.963
34.777,32.921
34.764,32.881
34.75,32.841
34.737,32.802
34.723,32.765
34.708,32.729
34.694,32.696
34.679,32.665
34.664,32.636
34.648,32.608
34.632,32.582
34.616,32.557
34.599,32.533
34.583,32.51
34.566,32.487
34.549,32.465
34.531,32.442
34.513,32.419
34.493,32.395
34.473,32.37
34.452,32.345
34.43,32.32
34.407,32.294
34.383,32.268
34.359,32.242
34.335,32.218
34.312,32.195
34.289,32.175
34.267,32.157
34.247,32.143
34.228,32.134
34.209,32.132
34.192,32.138
34.176,32.155
34.16,32.185
34.145,32.228
34.13,32.289
34.115,32.367
34.101,32.465
34.087,32.584
34.074,32.724
34.061,32.884
34.048,33.064
34.035,33.263
34.022,33.478
34.009,33.706
33.995,33.946
33.981,34.194
33.968,34.446
33.955,34.698
33.943,34.949
33.934,35.193
33.929,35.427
33.929,35.651
33.936,35.859
33.951,36.051
33.975,36.225
34.01,36.38
34.054,36.515
34.109,36.629
34.175,36.723
34.25,36.798
34.335,36.854
34.428,36.893
34.528,36.915
34.632,36.923
34.74,36.917
34.849,36.9
34.957,36.873
35.063,36.838
35.164,36.797
35.26,36.752
35.347,36.703
35.427,36.651
35.496,36.599
35.556,36.546
35.605,36.493
35.645,36.441
35.674,36.39
35.694,36.341
35.706,36.294
35.71,36.248
35.707,36.205
35.698,36.163
35.684,36.123
35.666,36.085
35.645,36.047
35.621,36.01
35.596,35.974
35.569,35.938
35.541,35.902
35.512,35.865
35.484,35.827
35.454,35.788
35.425,35.748
35.395,35.705
35.366,35.662
35.336,35.616
35.306,35.569
35.277,35.521
35.249,35.472
35.221,35.423
35.193,35.373
35.166,35.323
35.139,35.274
35.112,35.225
35.084,35.178
35.055,35.132
35.025,35.088
34.994,35.047
34.963,35.009
34.931,34.973
34.899,34.941
34.867,34.912
34.836,34.886
34.806,34.863
34.778,34.844
34.752,34.828
34.728,34.815
34.706,34.805
34.687,34.798
34.669,34.792
34.654,34.788
34.642,34.785
34.633,34.783
34.626,34.781
34.621,34.778
34.618,34.776
34.616,34.773
34.615,34.769
34.616,34.764
34.616,34.758
34.616,34.75
34.617,34.742
34.617,34.732
34.618,34.721
34.618,34.708
34.618,34.693
34.618,34.675
34.617,34.655
34.616,34.633
34.615,34.607
34.613,34.578
34.61,34.547
34.606,34.513
34.601,34.477
34.596,34.438
34.589,34.398
34.582,34.355
34.573,34.311
34.562,34.265
34.55,34.219
34.537,34.173
34.522,34.126
34.507,34.078
34.492,34.03
34.476,33.982
34.462,33.934
34.447,33.886
34.433,33.839
34.419,33.792
34.406,33.747
34.392,33.704
34.377,33.662
34.362,33.621
34.346,33.582
34.329,33.544
34.312,33.508
34.293,33.472
34.275,33.438
34.257,33.405
34.238,33.373
34.221,33.342
34.203,33.312
34.186,33.283
34.169,33.255
34.153,33.228
34.137,33.202
34.121,33.176
34.105,33.151
34.09,33.127
34.074,33.103
34.06,33.079
34.045,33.056
34.03,33.033
34.016,33.011
34.002,32.988
33.988,32.966
33.975,32.944
33.962,32.922
33.95,32.899
33.938,32.876
33.927,32.853
33.916,32.831
33.905,32.809
33.894,32.788
33.883,32.767
33.872,32.747
33.863,32.729
33.855,32.711
33.851,32.696
33.851,32.683
33.856,32.675
33.868,32.672
33.889,32.677
33.918,32.69
33.957,32.714
34.006,32.75
34.066,32.802
34.136,32.871
34.216,32.958
34.306,33.065
34.404,33.191
34.51,33.337
34.622,33.502
34.738,33.684
34.856,33.883
34.975,34.096
35.092,34.322
35.206,34.557
35.315,34.798
35.417,35.043
35.512,35.286
35.599,35.524
35.676,35.755
35.744,35.974
35.801,36.179
35.848,36.369
35.885,36.543
35.912,36.698
35.929,36.834
35.939,36.952
35.941,37.05
35.937,37.13
35.928,37.192
35.915,37.237
35.898,37.267
35.878,37.282
35.858,37.285
35.835,37.276
35.813,37.256
35.789,37.229
35.766,37.194
35.742,37.154
35.719,37.108
35.696,37.059
35.673,37.006
35.651,36.951
35.629,36.894
35.607,36.837
35.585,36.781
35.563,36.725
35.542,36.671
35.52,36.618
35.497,36.568
35.475,36.519
35.451,36.472
35.427,36.427
35.401,36.384
35.375,36.342
35.347,36.301
35.318,36.262
35.288,36.223
35.257,36.186
35.225,36.148
35.194,36.111
35.164,36.074
35.135,36.036
35.107,35.998
35.082,35.959
35.059,35.919
35.038,35.878
35.021,35.835
35.007,35.792
34.995,35.747
34.986,35.701
34.979,35.656
34.974,35.611
34.972,35.567
34.971,35.523
34.971,35.482
34.972,35.441
34.974,35.403
34.976,35.366
34.978,35.333
34.979,35.302
34.98,35.274
34.98,35.249
34.979,35.228
34.977,35.209
34.974,35.194
34.97,35.181
34.965,35.17
34.958,35.161
34.951,35.154
34.942,35.149
34.931,35.146
34.92,35.144
34.908,35.143
34.895,35.143
34.883,35.143
34.871,35.143
34.859,35.143
34.847,35.142
34.835,35.141
34.823,35.137
34.811,35.133
34.799,35.127
34.786,35.119
34.773,35.109
34.76,35.096
34.746,35.081
34.731,35.063
34.717,35.042
34.702,35.018
34.686,34.99
34.671,34.959
34.654,34.925
34.637,34.888
34.619,34.849
34.6,34.808
34.58,34.764
34.561,34.72
34.541,34.676
34.522,34.631
34.504,34.587
34.486,34.545
34.469,34.503
34.453,34.462
34.438,34.423
34.423,34.385
34.408,34.348
34.394,34.312
34.38,34.278
34.366,34.245
34.351,34.214
34.337,34.184
34.322,34.155
34.308,34.127
34.295,34.1
34.281,34.072
34.268,34.045
34.255,34.017
34.243,33.989
34.232,33.962
34.223,33.934
34.216,33.906
34.211,33.879
34.21,33.852
34.213,33.825
34.221,33.799
34.234,33.773
34.255,33.747
34.284,33.722
34.323,33.699
34.372,33.678
34.431,33.658
34.502,33.64
34.583,33.623
34.675,33.607
34.776,33.592
34.886,33.577
35.002,33.562
35.124,33.547
35.249,33.531
35.375,33.515
35.5,33.498
35.623,33.48
35.741,33.461
35.852,33.441
35.955,33.42
36.049,33.4
36.133,33.379
36.206,33.358
36.27,33.337
36.322,33.317
36.365,33.297
36.397,33.278
36.419,33.26
36.433,33.242
36.439,33.226
36.438,33.211
36.431,33.198
36.419,33.188
36.404,33.183
36.385,33.184
36.364,33.193
36.341,33.213
36.316,33.244
36.291,33.29
36.264,33.353
36.237,33.433
36.209,33.533
36.182,33.653
36.156,33.794
36.13,33.955
36.105,34.135
36.08,34.332
36.056,34.545
36.031,34.769
36.005,35.002
35.979,35.24
35.951,35.479
35.922,35.715
35.892,35.945
35.861,36.166
35.83,36.375
35.798,36.569
35.766,36.747
35.734,36.907
35.703,37.048
35.673,37.17
35.643,37.272
35.615,37.354
35.588,37.417
35.563,37.463
35.541,37.493
35.52,37.507
35.502,37.508
35.485,37.496
35.471,37.474
35.457,37.442
35.445,37.403
35.435,37.357
35.425,37.307
35.417,37.253
35.411,37.197
35.406,37.14
35.403,37.083
35.4,37.027
35.398,36.972
35.396,36.918
35.394,36.867
35.393,36.819
35.392,36.773
35.39,36.731
35.389,36.692
35.387,36.656
35.385,36.623
35.382,36.593
35.379,36.565
35.375,36.539
35.369,36.514
35.363,36.491
35.354,36.469
35.344,36.446
35.333,36.424
35.32,36.401
35.305,36.377
35.289,36.351
35.272,36.324
35.254,36.296
35.235,36.266
35.216,36.235
35.197,36.202
35.177,36.169
35.156,36.136
35.135,36.102
35.113,36.068
35.09,36.035
35.067,36.003
35.043,35.973
35.019,35.946
34.994,35.922
34.971,35.902
34.948,35.886
34.926,35.874
34.906,35.865
34.887,35.859
34.869,35.856
34.852,35.855
34.836,35.856
34.821,35.859
34.807,35.862
34.794,35.865
34.782,35.869
34.771,35.871
34.762,35.873
34.755,35.873
34.748,35.871
34.743,35.867
34.738,35.86
34.734,35.851
34.729,35.838
34.723,35.822
34.716,35.803
34.708,35.781
34.699,35.755
34.688,35.725
34.677,35.693
34.664,35.658
34.65,35.62
34.636,35.581
34.621,35.54
34.607,35.499
34.593,35.456
34.58,35.414
34.571,35.372
34.565,35.33
34.566,35.288
34.572,35.247
34.588,35.208
34.613,35.169
34.65,35.13
34.699,35.092
34.76,35.053
34.834,35.015
34.92,34.976
35.017,34.936
35.124,34.897
35.239,34.858
35.36,34.819
35.486,34.781
35.614,34.743
35.742,34.706
35.868,34.669
35.99,34.633
36.106,34.597
36.213,34.562
36.311,34.527
36.398,34.493
36.473,34.458
36.538,34.422
36.591,34.386
36.632,34.348
36.663,34.311
36.684,34.274
36.695,34.238
36.698,34.203
36.694,34.17
36.683,34.139
36.667,34.111
36.647,34.084
36.625,34.06
36.6,34.038
36.574,34.019
36.548,34.001
36.521,33.984
36.494,33.969
36.466,33.954
36.439,33.939
36.411,33.924
36.383,33.911
36.355,33.897
36.327,33.884
36.3,33.872
36.273,33.86
36.245,33.848
36.218,33.836
36.191,33.824
36.164,33.812
36.137,33.8
36.11,33.786
36.081,33.772
36.052,33.757
36.022,33.742
35.99,33.726
35.958,33.709
35.925,33.693
35.893,33.677
35.86,33.663
35.828,33.651
35.797,33.642
35.767,33.639
35.739,33.641
35.713,33.651
35.688,33.672
35.665,33.704
35.644,33.75
35.625,33.81
35.607,33.888
35.59,33.983
35.576,34.097
35.563,34.229
35.553,34.38
35.544,34.547
35.537,34.729
35.532,34.924
35.528,35.128
35.525,35.34
35.523,35.554
35.521,35.769
35.521,35.981
35.52,36.185
35.519,36.381
35.518,36.564
35.518,36.734
35.517,36.888
35.516,37.025
35.515,37.144
35.513,37.245
35.511,37.327
35.508,37.392
35.503,37.439
35.498,37.47
35.49,37.485
35.482,37.487
35.471,37.477
35.459,37.456
35.446,37.426
35.432,37.39
35.417,37.347
35.402,37.3
35.387,37.249
35.371,37.196
35.355,37.141
35.339,37.085
35.322,37.029
35.304,36.973
35.285,36.918
35.266,36.864
35.247,36.812
35.228,36.763
35.209,36.717
35.189,36.673
35.17,36.631
35.151,36.592
35.132,36.554
35.113,36.518
35.094,36.483
35.076,36.447
35.059,36.412
35.042,36.375
35.026,36.337
35.01,36.297
34.995,36.256
34.979,36.213
34.963,36.168
34.946,36.122
34.928,36.076
34.908,36.029
34.887,35.982
34.865,35.936
34.843,35.891
34.82,35.849
34.798,35.808
34.775,35.771
34.753,35.737
34.731,35.707
34.71,35.681
34.688,35.658
34.667,35.64
34.645,35.625
34.624,35.614
34.604,35.607
34.584,35.602
34.566,35.599
34.551,35.599
34.54,35.601
34.534,35.604
34.535,35.609
34.545,35.615
34.565,35.623
34.596,35.632
34.64,35.642
34.697,35.652
34.767,35.661
34.851,35.67
34.946,35.677
35.051,35.682
35.164,35.685
35.284,35.686
35.407,35.685
35.531,35.68
35.654,35.673
35.774,35.662
35.888,35.648
35.996,35.63
36.095,35.609
36.185,35.584
36.266,35.556
36.337,35.526
36.399,35.493
36.45,35.458
36.492,35.423
36.524,35.386
36.547,35.348
36.562,35.31
36.569,35.271
36.57,35.233
36.566,35.194
36.556,35.155
36.542,35.116
36.525,35.077
36.505,35.038
36.482,34.999
36.457,34.96
36.43,34.921
36.4,34.883
36.369,34.846
36.336,34.809
36.301,34.773
36.265,34.738
36.227,34.703
36.188,34.669
36.149,34.637
36.11,34.605
36.07,34.574
36.032,34.545
35.993,34.516
35.956,34.488
35.919,34.461
35.884,34.435
35.849,34.411
35.814,34.387
35.78,34.364
35.746,34.343
35.712,34.322
35.679,34.302
35.646,34.283
35.614,34.263
35.583,34.243
35.553,34.223
35.524,34.202
35.496,34.18
35.47,34.158
35.445,34.135
35.422,34.113
35.4,34.09
35.38,34.068
35.362,34.046
35.345,34.024
35.331,34.003
35.319,33.981
35.308,33.961
35.3,33.94
35.293,33.921
35.288,33.902
35.284,33.884
35.282,33.866
35.281,33.849
35.281,33.832
35.281,33.815
35.283,33.798
35.284,33.781
35.284,33.765
35.284,33.749
35.283,33.734
35.28,33.721
35.276,33.712
35.27,33.708
35.262,33.71
35.253,33.722
35.243,33.744
35.231,33.779
35.219,33.828
35.205,33.893
35.19,33.973
35.175,34.07
35.16,34.184
35.145,34.313
35.13,34.457
35.115,34.615
35.099,34.784
35.084,34.962
35.068,35.149
35.053,35.34
35.038,35.533
35.022,35.726
35.007,35.915
34.992,36.097
34.978,36.271
34.963,36.434
34.949,36.585
34.935,36.721
34.92,36.843
34.904,36.949
34.888,37.04
34.872,37.115
34.855,37.174
34.838,37.219
34.82,37.25
34.802,37.268
34.784,37.274
34.767,37.268
34.749,37.253
34.732,37.229
34.714,37.197
34.697,37.158
34.68,37.114
34.663,37.065
34.647,37.012
34.63,36.955
34.613,36.895
34.597,36.833
34.581,36.769
34.565,36.704
34.549,36.64
34.533,36.575
34.516,36.511
34.5,36.448
34.484,36.385
34.469,36.322
34.457,36.261
34.447,36.201
34.443,36.142
34.444,36.084
34.453,36.027
34.471,35.971
34.499,35.916
34.538,35.861
34.589,35.807
34.652,35.753
34.727,35.699
34.814,35.647
34.912,35.595
35.02,35.544
35.136,35.494
35.258,35.447
35.384,35.401
35.512,35.357
35.64,35.316
35.765,35.278
35.885,35.243
35.999,35.213
36.105,35.186
36.202,35.164
36.29,35.146
36.367,35.132
36.435,35.122
36.492,35.115
36.539,35.113
36.577,35.113
36.605,35.117
36.623,35.125
36.633,35.135
36.634,35.148
36.629,35.162
36.617,35.178
36.6,35.194
36.578,35.211
36.552,35.227
36.524,35.243
36.494,35.257
36.463,35.271
36.431,35.282
36.4,35.292
36.369,35.3
36.339,35.305
36.311,35.307
36.284,35.306
36.258,35.301
36.235,35.293
36.212,35.281
36.191,35.265
36.17,35.246
36.149,35.225
36.128,35.2
36.106,35.172
36.082,35.142
36.058,35.109
36.032,35.075
36.004,35.04
35.974,35.004
35.943,34.967
35.911,34.93
35.878,34.893
35.844,34.855
35.81,34.818
35.777,34.781
35.744,34.745
35.712,34.708
35.682,34.672
35.653,34.636
35.626,34.599
35.602,34.563
35.581,34.526
35.563,34.49
35.548,34.455
35.536,34.42
35.528,34.387
35.522,34.356
35.519,34.326
35.518,34.298
35.519,34.272
35.52,34.247
35.521,34.224
35.522,34.201
35.522,34.178
35.522,34.156
35.52,34.133
35.517,34.11
35.512,34.086
35.507,34.062
35.499,34.038
35.49,34.014
35.479,33.989
35.467,33.963
35.454,33.937
35.44,33.911
35.426,33.884
35.41,33.857
35.394,33.829
35.377,33.801
35.359,33.774
35.341,33.747
35.322,33.72
35.302,33.695
35.283,33.67
35.262,33.647
35.242,33.624
35.221,33.603
35.199,33.582
35.177,33.561
35.154,33.541
35.131,33.521
35.106,33.501
35.081,33.482
35.055,33.462
35.028,33.442
35.001,33.422
34.974,33.402
34.947,33.382
34.92,33.361
34.893,33.34
34.867,33.318
34.84,33.296
34.814,33.273
34.789,33.25
34.763,33.229
34.736,33.21
34.71,33.195
34.684,33.185
34.658,33.182
34.632,33.187
34.606,33.203
34.582,33.232
34.559,33.274
34.537,33.332
34.516,33.407
34.496,33.499
34.476,33.609
34.458,33.736
34.44,33.879
34.424,34.037
34.409,34.209
34.395,34.391
34.382,34.583
34.37,34.78
34.36,34.979
34.353,35.179
34.349,35.376
34.35,35.568
34.357,35.752
34.372,35.925
34.395,36.087
34.429,36.234
34.475,36.367
34.532,36.483
34.602,36.583
34.684,36.665
34.778,36.73
34.883,36.778
34.997,36.809
35.12,36.826
35.248,36.829
35.381,36.82
35.515,36.801
35.649,36.773
35.781,36.737
35.908,36.695
36.03,36.648
36.144,36.597
36.25,36.542
36.345,36.484
36.43,36.424
36.503,36.363
36.566,36.301
36.618,36.238
36.66,36.175
36.691,36.112
36.714,36.05
36.728,35.988
36.735,35.926
36.734,35.865
36.728,35.804
36.717,35.744
36.702,35.684
36.684,35.624
36.664,35.563
36.641,35.503
36.617,35.443
36.592,35.382
36.565,35.321
36.538,35.26
36.51,35.199
36.481,35.138
36.451,35.078
36.421,35.02
36.39,34.964
36.36,34.912
36.329,34.862
36.297,34.817
36.266,34.776
36.234,34.74
36.201,34.708
36.168,34.682
36.135,34.66
36.101,34.644
36.065,34.632
36.029,34.624
35.991,34.62
35.952,34.619
35.911,34.622
35.87,34.628
35.828,34.637
35.786,34.648
35.745,34.662
35.705,34.677
35.667,34.694
35.631,34.711
35.598,34.728
35.568,34.745
35.542,34.76
35.518,34.774
35.499,34.786
35.482,34.796
35.468,34.803
35.458,34.807
35.45,34.807
35.445,34.805
35.443,34.801
35.442,34.794
35.442,34.785
35.443,34.773
35.445,34.76
35.446,34.745
35.447,34.727
35.448,34.708
35.449,34.687
35.448,34.664
35.446,34.64
35.443,34.613
35.438,34.584
35.431,34.553
35.422,34.521
35.41,34.487
35.396,34.452
35.38,34.416
35.362,34.379
35.341,34.342
35.319,34.304
35.296,34.268
35.272,34.232
35.247,34.197
35.223,34.163
35.2,34.13
35.177,34.097
35.155,34.066
35.133,34.036
35.112,34.006
35.092,33.977
35.072,33.949
35.052,33.922
35.032,33.896
35.012,33.871
34.992,33.847
34.97,33.824
34.949,33.802
34.926,33.781
34.903,33.761
34.879,33.742
34.855,33.723
34.831,33.704
34.806,33.686
34.781,33.667
34.757,33.649
34.733,33.631
34.709,33.612
34.686,33.594
34.663,33.574
34.641,33.555
34.62,33.535
34.598,33.514
34.576,33.495
34.554,33.476
34.533,33.457
34.511,33.44
34.49,33.425
34.47,33.411
34.451,33.399
34.433,33.388
34.417,33.378
34.403,33.369
34.391,33.361
34.383,33.353
34.378,33.347
34.378,33.34
34.384,33.333
34.397,33.326
34.418,33.319
34.448,33.311
34.488,33.302
34.54,33.293
34.604,33.284
34.68,33.275
34.767,33.265
34.866,33.255
34.976,33.245
35.094,33.234
35.221,33.223
35.354,33.211
35.492,33.198
35.633,33.183
35.776,33.168
35.919,33.153
36.061,33.138
36.198,33.125
36.33,33.116
36.454,33.113
36.571,33.118
36.678,33.134
36.774,33.163
36.86,33.206
36.934,33.266
36.997,33.345
37.049,33.442
37.09,33.558
37.119,33.694
37.139,33.848
37.15,34.019
37.153,34.204
37.148,34.403
37.138,34.612
37.123,34.829
37.102,35.051
37.079,35.275
37.053,35.498
37.025,35.717
36.996,35.93
36.966,36.135
36.935,36.328
36.905,36.508
36.874,36.674
36.844,36.823
36.815,36.955
36.785,37.07
36.756,37.166
36.726,37.245
36.695,37.307
36.664,37.351
36.632,37.379
36.599,37.393
36.565,37.393
36.529,37.38
36.492,37.357
36.453,37.324
36.412,37.283
36.371,37.236
36.328,37.184
36.285,37.126
36.242,37.066
36.199,37.002
36.157,36.936
36.116,36.869
36.077,36.8
36.039,36.73
36.003,36.661
35.968,36.591
35.936,36.522
35.905,36.454
35.876,36.385
35.85,36.318
35.825,36.251
35.803,36.185
35.783,36.12
35.766,36.057
35.751,35.994
35.739,35.933
35.73,35.872
35.722,35.812
35.717,35.752
35.712,35.693
35.708,35.634
35.705,35.575
35.702,35.518
35.7,35.461
35.697,35.406
35.695,35.354
35.692,35.304
35.689,35.259
35.684,35.217
35.678,35.181
35.67,35.149
35.66,35.123
35.649,35.103
35.635,35.088
35.62,35.079
35.604,35.076
35.586,35.077
35.568,35.084
35.549,35.096
35.53,35.112
35.511,35.132
35.491,35.154
35.472,35.179
35.452,35.205
35.433,35.231
35.413,35.257
35.393,35.28
35.373,35.301
35.353,35.32
35.333,35.336
35.314,35.35
35.295,35.359
35.276,35.366
35.257,35.368
35.238,35.367
35.218,35.361
35.199,35.351
35.179,35.338
35.159,35.32
35.138,35.299
35.117,35.276
35.094,35.25
35.071,35.221
35.047,35.192
35.022,35.161
34.996,35.13
34.969,35.099
34.942,35.069
34.915,35.039
34.888,35.01
34.861,34.983
34.834,34.957
34.808,34.932
34.782,34.908
34.758,34.884
34.735,34.86
34.712,34.837
34.692,34.812
34.673,34.787
34.656,34.76
34.643,34.733
34.634,34.704
34.631,34.675
34.635,34.644
34.648,34.613
34.671,34.582
34.705,34.551
34.751,34.521
34.811,34.493
34.884,34.466
34.973,34.44
35.075,34.415
35.191,34.391
35.319,34.368
35.458,34.345
35.606,34.323
35.76,34.301
35.919,34.279
36.081,34.256
36.242,34.234
36.402,34.21
36.558,34.186
36.707,34.162
36.848,34.136
36.978,34.11
37.097,34.084
37.202,34.057
37.295,34.029
37.374,34.001
37.441,33.973
37.495,33.945
37.537,33.917
37.568,33.891
37.589,33.866
37.602,33.842
37.606,33.819
37.603,33.797
37.594,33.775
37.578,33.753
37.558,33.731
37.533,33.709
37.505,33.688
37.474,33.669
37.44,33.65
37.405,33.633
37.369,33.618
37.333,33.604
37.296,33.591
37.26,33.58
37.223,33.571
37.186,33.562
37.148,33.555
37.109,33.548
37.069,33.541
37.028,33.533
36.985,33.525
36.941,33.516
36.896,33.506
36.849,33.494
36.8,33.481
36.751,33.467
36.7,33.451
36.649,33.433
36.598,33.415
36.547,33.398
36.496,33.384
36.446,33.374
36.398,33.37
36.351,33.373
36.306,33.387
36.263,33.412
36.223,33.452
36.185,33.509
36.15,33.584
36.117,33.679
36.086,33.795
36.057,33.933
36.03,34.092
36.005,34.272
35.983,34.471
35.963,34.688
35.945,34.919
35.93,35.162
35.917,35.413
35.906,35.67
35.897,35.928
35.889,36.185
35.882,36.438
35.875,36.682
35.87,36.916
35.864,37.136
35.857,37.341
35.85,37.527
35.843,37.695
35.835,37.842
35.826,37.967
35.817,38.07
35.807,38.152
35.796,38.213
35.785,38.254
35.772,38.275
35.759,38.278
35.745,38.265
35.729,38.238
35.712,38.198
35.693,38.147
35.674,38.088
35.653,38.022
35.631,37.951
35.608,37.876
35.585,37.799
35.562,37.72
35.538,37.64
35.514,37.56
35.49,37.48
35.466,37.401
35.442,37.323
35.418,37.246
35.395,37.17
35.372,37.095
35.349,37.021
35.326,36.947
35.302,36.874
35.277,36.801
35.252,36.729
35.225,36.656
35.198,36.583
35.171,36.509
35.143,36.435
35.115,36.361
35.088,36.286
35.062,36.211
35.036,36.138
35.012,36.066
34.989,35.996
34.967,35.93
34.945,35.867
34.924,35.809
34.902,35.755
34.881,35.705
34.859,35.661
34.836,35.623
34.813,35.59
34.788,35.564
34.764,35.544
34.739,35.53
34.715,35.522
34.691,35.52
34.668,35.522
34.647,35.53
34.627,35.541
34.61,35.557
34.597,35.575
34.59,35.595
34.589,35.618
34.599,35.642
34.619,35.667
34.651,35.692
34.697,35.717
34.757,35.741
34.831,35.763
34.921,35.782
35.026,35.798
35.145,35.811
35.277,35.821
35.42,35.827
35.572,35.83
35.732,35.828
35.897,35.823
36.065,35.813
36.234,35.8
36.401,35.782
36.564,35.759
36.721,35.733
36.869,35.703
37.007,35.671
37.134,35.636
37.248,35.6
37.349,35.563
37.437,35.524
37.51,35.484
37.57,35.443
37.616,35.401
37.65,35.357
37.671,35.313
37.682,35.268
37.683,35.221
37.677,35.173
37.663,35.125
37.643,35.076
37.619,35.027
37.59,34.979
37.558,34.931
37.523,34.884
37.486,34.839
37.446,34.794
37.405,34.752
37.362,34.71
37.317,34.671
37.271,34.632
37.223,34.596
37.173,34.56
37.123,34.526
37.072,34.493
37.019,34.461
36.967,34.43
36.913,34.399
36.859,34.369
36.805,34.338
36.751,34.308
36.698,34.279
36.644,34.25
36.591,34.223
36.538,34.196
36.485,34.17
36.431,34.145
36.377,34.121
36.323,34.099
36.27,34.078
36.218,34.058
36.167,34.039
36.118,34.021
36.071,34.003
36.027,33.985
35.986,33.968
35.948,33.952
35.914,33.936
35.884,33.922
35.857,33.909
35.834,33.896
35.814,33.885
35.797,33.873
35.783,33.862
35.772,33.851
35.763,33.84
35.756,33.829
35.751,33.817
35.747,33.805
35.743,33.793
35.739,33.78
35.734,33.766
35.728,33.751
35.721,33.736
35.713,33.72
35.702,33.703
35.69,33.686
35.676,33.67
35.661,33.653
35.646,33.637
35.629,33.622
35.611,33.607
35.593,33.594
35.574,33.581
35.554,33.571
35.534,33.564
35.512,33.561
35.49,33.563
35.468,33.573
35.445,33.592
35.422,33.623
35.399,33.667
35.375,33.728
35.35,33.806
35.323,33.905
35.296,34.024
35.267,34.165
35.238,34.326
35.207,34.508
35.177,34.708
35.146,34.926
35.116,35.158
35.085,35.402
35.056,35.655
35.027,35.914
34.999,36.176
34.972,36.437
34.945,36.695
34.918,36.945
34.891,37.186
34.864,37.414
34.837,37.627
34.81,37.825
34.783,38.004
34.755,38.164
34.728,38.305
34.701,38.426
34.674,38.527
34.647,38.607
34.62,38.668
34.594,38.71
34.567,38.734
34.542,38.741
34.516,38.731
34.49,38.706
34.465,38.668
34.439,38.617
34.413,38.557
34.387,38.487
34.36,38.411
34.334,38.328
34.308,38.241
34.285,38.149
34.265,38.056
34.249,37.961
34.24,37.865
34.238,37.77
34.246,37.675
34.266,37.58
34.298,37.487
34.344,37.394
34.405,37.302
34.481,37.212
34.572,37.122
34.679,37.034
34.799,36.947
34.932,36.861
35.075,36.776
35.229,36.692
35.389,36.609
35.554,36.526
35.721,36.445
35.888,36.366
36.053,36.288
36.213,36.212
36.367,36.14
36.512,36.072
36.647,36.008
36.771,35.949
36.884,35.896
36.983,35.848
37.07,35.806
37.143,35.77
37.204,35.739
37.25,35.715
37.284,35.696
37.304,35.684
37.313,35.677
37.309,35.676
37.296,35.679
37.273,35.688
37.243,35.701
37.206,35.718
37.165,35.738
37.121,35.76
37.074,35.784
37.025,35.809
36.976,35.835
36.926,35.862
36.876,35.888
36.823,35.913
36.766,35.938
36.704,35.96
36.635,35.979
36.558,35.994
36.475,36.005
36.386,36.011
36.293,36.013
36.196,36.01
36.097,36.002
35.999,35.989
35.903,35.972
35.81,35.951
35.72,35.927
35.636,35.9
35.558,35.87
35.485,35.837
35.42,35.801
35.36,35.762
35.307,35.721
35.26,35.678
35.218,35.634
35.182,35.587
35.15,35.54
35.124,35.491
35.101,35.441
35.083,35.39
35.068,35.34
35.056,35.289
35.048,35.239
35.042,35.188
35.037,35.138
35.034,35.089
35.032,35.039
35.03,34.991
35.028,34.943
35.027,34.897
35.025,34.852
35.024,34.807
35.022,34.764
35.02,34.722
35.018,34.681
35.016,34.641
35.013,34.603
35.009,34.566
35.005,34.529
35,34.493
34.994,34.458
34.987,34.424
34.979,34.39
34.968,34.358
34.956,34.326
34.942,34.294
34.926,34.263
34.909,34.231
34.891,34.201
34.872,34.17
34.852,34.14
34.832,34.11
34.812,34.081
34.792,34.052
34.771,34.024
34.751,33.996
34.73,33.97
34.709,33.945
34.688,33.921
34.667,33.899
34.645,33.879
34.622,33.86
34.599,33.842
34.576,33.826
34.552,33.811
34.528,33.798
34.504,33.787
34.479,33.777
34.456,33.767
34.432,33.757
34.408,33.747
34.385,33.737
34.361,33.726
34.337,33.714
34.313,33.701
34.288,33.686
34.264,33.671
34.239,33.654
34.213,33.636
34.187,33.617
34.161,33.597
34.134,33.577
34.108,33.557
34.082,33.537
34.056,33.517
34.03,33.497
34.005,33.478
33.979,33.459
33.952,33.442
33.926,33.428
33.899,33.418
33.874,33.414
33.849,33.419
33.827,33.433
33.807,33.461
33.792,33.504
33.783,33.565
33.782,33.647
33.79,33.751
33.81,33.878
33.844,34.03
33.892,34.207
33.956,34.407
34.037,34.63
34.134,34.872
34.247,35.133
34.376,35.408
34.519,35.694
34.675,35.988
34.842,36.286
35.017,36.585
35.197,36.879
35.381,37.166
35.564,37.441
35.746,37.701
35.922,37.944
36.093,38.166
36.254,38.367
36.404,38.544
36.541,38.698
36.665,38.828
36.774,38.934
36.868,39.018
36.947,39.079
37.011,39.12
37.062,39.141
37.099,39.144
37.125,39.131
37.14,39.103
37.145,39.062
37.141,39.01
37.129,38.947
37.11,38.876
37.085,38.797
37.054,38.712
37.019,38.623
36.98,38.528
36.938,38.431
36.894,38.33
36.848,38.228
36.8,38.125
36.751,38.021
36.7,37.917
36.648,37.813
36.595,37.711
36.54,37.609
36.484,37.51
36.426,37.411
36.366,37.314
36.305,37.219
36.243,37.125
36.18,37.033
36.117,36.942
36.054,36.852
35.991,36.763
35.929,36.675
35.867,36.589
35.805,36.504
35.744,36.42
35.684,36.339
35.624,36.262
35.567,36.188
35.51,36.119
35.456,36.057
35.405,36
35.356,35.949
35.31,35.905
35.267,35.868
35.228,35.836
35.191,35.812
35.158,35.794
35.129,35.782
35.103,35.776
35.08,35.776
35.06,35.782
35.042,35.793
35.027,35.809
35.013,35.829
35.001,35.852
34.99,35.878
34.98,35.905
34.97,35.935
34.96,35.964
34.951,35.994
34.942,36.022
34.933,36.049
34.925,36.074
34.917,36.096
34.91,36.115
34.902,36.131
34.893,36.142
34.883,36.149
34.871,36.15
34.859,36.147
34.845,36.139
34.83,36.126
34.814,36.107
34.797,36.084
34.778,36.056
34.758,36.024
34.737,35.987
34.715,35.946
34.693,35.901
34.669,35.853
34.645,35.803
34.621,35.751
34.596,35.698
34.57,35.643
34.544,35.588
34.517,35.533
34.49,35.478
34.463,35.423
34.435,35.368
34.407,35.313
34.379,35.259
34.35,35.206
34.321,35.154
34.292,35.103
34.263,35.053
34.234,35.004
34.205,34.956
34.176,34.908
34.148,34.861
34.121,34.814
34.094,34.767
34.068,34.72
34.043,34.673
34.02,34.627
33.997,34.581
33.974,34.536
33.951,34.492
33.928,34.448
33.905,34.407
33.883,34.366
33.86,34.327
33.837,34.289
33.814,34.252
33.79,34.217
33.767,34.183
33.743,34.15
33.72,34.119
33.698,34.089
33.679,34.061
33.664,34.034
33.656,34.009
33.656,33.985
33.666,33.963
33.689,33.943
33.724,33.924
33.774,33.906
33.84,33.889
33.923,33.874
34.023,33.859
34.14,33.846
34.272,33.833
34.42,33.821
34.581,33.809
34.753,33.797
34.936,33.785
35.126,33.771
35.32,33.757
35.516,33.741
35.711,33.724
35.903,33.705
36.088,33.686
36.265,33.666
36.431,33.646
36.585,33.625
36.726,33.605
36.852,33.585
36.962,33.565
37.057,33.547
37.137,33.53
37.202,33.513
37.252,33.498
37.289,33.484
37.313,33.47
37.325,33.456
37.327,33.442
37.319,33.429
37.303,33.417
37.279,33.408
37.248,33.402
37.213,33.401
37.173,33.407
37.131,33.423
37.086,33.452
37.04,33.496
36.992,33.558
36.943,33.64
36.894,33.744
36.844,33.873
36.792,34.026
36.74,34.206
36.687,34.411
36.632,34.641
36.576,34.894
36.52,35.168
36.462,35.458
36.403,35.762
36.343,36.075
36.282,36.393
36.22,36.712
36.157,37.027
36.093,37.335
36.029,37.632
35.964,37.914
35.9,38.178
35.837,38.423
35.774,38.646
35.713,38.845
35.655,39.02
35.598,39.17
35.544,39.295
35.494,39.395
35.446,39.471
35.402,39.523
35.361,39.553
35.324,39.561
35.29,39.55
35.26,39.521
35.233,39.477
35.209,39.419
35.188,39.349
35.17,39.268
35.154,39.179
35.142,39.084
35.131,38.983
35.123,38.878
35.116,38.77
35.11,38.66
35.105,38.549
35.101,38.438
35.097,38.328
35.093,38.219
35.089,38.111
35.084,38.004
35.079,37.9
35.073,37.796
35.065,37.694
35.056,37.593
35.045,37.493
35.032,37.394
35.018,37.296
35.002,37.198
34.984,37.102
34.965,37.006
34.946,36.912
34.926,36.82
34.905,36.729
34.883,36.642
34.86,36.558
34.835,36.478
34.809,36.403
34.782,36.334
34.754,36.27
34.725,36.213
34.695,36.163
34.665,36.12
34.635,36.084
34.604,36.055
34.573,36.033
34.542,36.018
34.51,36.01
34.479,36.007
34.447,36.01
34.414,36.017
34.38,36.029
34.346,36.045
34.312,36.065
34.277,36.087
34.242,36.111
34.208,36.136
34.174,36.163
34.14,36.19
34.106,36.217
34.073,36.242
34.04,36.264
34.006,36.284
33.973,36.301
33.94,36.313
33.907,36.321
33.875,36.324
33.844,36.323
33.814,36.316
33.784,36.304
33.757,36.287
33.731,36.264
33.706,36.237
33.684,36.204
33.663,36.167
33.645,36.127
33.63,36.084
33.619,36.038
33.613,35.989
33.615,35.939
33.625,35.887
33.646,35.834
33.68,35.779
33.727,35.725
33.789,35.67
33.866,35.615
33.96,35.561
34.069,35.507
34.195,35.454
34.336,35.401
34.492,35.349
34.661,35.297
34.843,35.245
35.034,35.194
35.232,35.144
35.435,35.095
35.639,35.047
35.842,35
36.041,34.954
36.233,34.91
36.416,34.867
36.586,34.825
36.743,34.784
36.885,34.745
37.011,34.707
37.12,34.67
37.213,34.634
37.29,34.599
37.351,34.566
37.397,34.533
37.43,34.501
37.45,34.469
37.458,34.437
37.457,34.405
37.447,34.373
37.428,34.341
37.403,34.309
37.372,34.277
37.336,34.246
37.296,34.216
37.252,34.186
37.205,34.157
37.154,34.128
37.102,34.1
37.047,34.073
36.991,34.047
36.932,34.022
36.873,33.997
36.812,33.973
36.75,33.949
36.686,33.925
36.621,33.9
36.554,33.875
36.485,33.85
36.415,33.824
36.344,33.797
36.272,33.771
36.2,33.744
36.128,33.719
36.057,33.693
35.986,33.669
35.917,33.646
35.85,33.624
35.785,33.603
35.722,33.583
35.662,33.564
35.606,33.545
35.552,33.526
35.502,33.508
35.456,33.489
35.413,33.47
35.373,33.452
35.336,33.433
35.302,33.415
35.271,33.398
35.242,33.384
35.215,33.372
35.191,33.365
35.169,33.364
35.149,33.372
35.132,33.39
35.117,33.422
35.104,33.471
35.092,33.539
35.08,33.629
35.07,33.742
35.06,33.88
35.051,34.043
35.042,34.232
35.033,34.447
35.024,34.686
35.014,34.949
35.003,35.232
34.992,35.533
34.98,35.849
34.967,36.174
34.954,36.506
34.94,36.84
34.926,37.171
34.911,37.496
34.894,37.811
34.876,38.111
34.857,38.393
34.837,38.654
34.815,38.891
34.793,39.103
34.771,39.287
34.748,39.444
34.726,39.573
34.704,39.673
34.681,39.747
34.658,39.795
34.634,39.819
34.61,39.821
34.584,39.802
34.558,39.766
34.531,39.714
34.504,39.649
34.477,39.572
34.45,39.485
34.422,39.39
34.394,39.289
34.365,39.183
34.336,39.072
34.306,38.959
34.276,38.844
34.247,38.727
34.218,38.61
34.19,38.494
34.162,38.379
34.135,38.265
34.107,38.153
34.08,38.044
34.053,37.936
34.025,37.829
33.996,37.724
33.968,37.62
33.938,37.518
33.909,37.417
33.88,37.317
33.85,37.219
33.821,37.122
33.792,37.027
33.764,36.933
33.737,36.841
33.71,36.752
33.684,36.666
33.659,36.584
33.635,36.505
33.615,36.431
33.598,36.361
33.585,36.297
33.579,36.239
33.58,36.187
33.59,36.142
33.612,36.104
33.646,36.073
33.694,36.05
33.758,36.034
33.837,36.026
33.932,36.024
34.042,36.028
34.167,36.038
34.306,36.052
34.457,36.071
34.619,36.092
34.788,36.117
34.964,36.144
35.144,36.172
35.325,36.201
35.506,36.231
35.684,36.26
35.856,36.287
36.021,36.311
36.176,36.332
36.321,36.35
36.454,36.364
36.573,36.373
36.679,36.377
36.771,36.377
36.849,36.37
36.912,36.358
36.963,36.341
37,36.318
37.025,36.29
37.038,36.256
37.041,36.217
37.035,36.173
37.019,36.125
36.997,36.073
36.967,36.018
36.932,35.96
36.893,35.899
36.85,35.836
36.804,35.772
36.756,35.707
36.705,35.642
36.653,35.577
36.599,35.511
36.543,35.446
36.486,35.382
36.428,35.318
36.37,35.255
36.311,35.192
36.252,35.13
36.192,35.07
36.132,35.01
36.071,34.951
36.01,34.893
35.949,34.836
35.887,34.78
35.825,34.725
35.763,34.671
35.701,34.617
35.639,34.565
35.577,34.514
35.516,34.463
35.456,34.414
35.398,34.366
35.342,34.32
35.288,34.276
35.236,34.234
35.187,34.193
35.141,34.155
35.098,34.118
35.058,34.084
35.021,34.052
34.988,34.022
34.959,33.994
34.933,33.968
34.911,33.943
34.893,33.92
34.877,33.899
34.863,33.879
34.852,33.86
34.841,33.841
34.832,33.823
34.824,33.805
34.816,33.787
34.809,33.768
34.801,33.749
34.794,33.73
34.786,33.713
34.778,33.697
34.77,33.682
34.76,33.668
34.75,33.654
34.738,33.641
34.724,33.629
34.709,33.616
34.692,33.604
34.674,33.591
34.655,33.578
34.636,33.564
34.616,33.55
34.596,33.535
34.576,33.519
34.555,33.502
34.534,33.483
34.511,33.464
34.489,33.444
34.466,33.423
34.444,33.402
34.421,33.381
34.399,33.362
34.377,33.345
34.355,33.332
34.332,33.326
34.31,33.329
34.286,33.343
34.262,33.371
34.237,33.417
34.211,33.482
34.184,33.571
34.156,33.684
34.127,33.824
34.097,33.991
34.067,34.186
34.037,34.409
34.008,34.657
33.98,34.929
33.952,35.222
33.926,35.532
33.901,35.856
33.877,36.19
33.854,36.53
33.831,36.872
33.809,37.21
33.787,37.542
33.765,37.861
33.744,38.165
33.723,38.451
33.703,38.715
33.682,38.954
33.662,39.169
33.642,39.356
33.621,39.517
33.601,39.65
33.58,39.756
33.561,39.835
33.543,39.889
33.528,39.919
33.518,39.927
33.514,39.914
33.518,39.883
33.531,39.835
33.556,39.773
33.593,39.699
33.645,39.615
33.712,39.523
33.795,39.423
33.894,39.318
34.007,39.208
34.135,39.095
34.276,38.979
34.428,38.861
34.588,38.743
34.755,38.623
34.926,38.504
35.097,38.386
35.267,38.269
35.432,38.153
35.591,38.04
35.74,37.928
35.878,37.818
36.004,37.709
36.116,37.601
36.214,37.495
36.297,37.389
36.367,37.283
36.422,37.177
36.464,37.072
36.494,36.967
36.512,36.864
36.519,36.763
36.516,36.665
36.506,36.571
36.488,36.481
36.463,36.397
36.433,36.318
36.398,36.247
36.359,36.184
36.317,36.128
36.273,36.08
36.227,36.04
36.179,36.009
36.13,35.986
36.08,35.971
36.03,35.964
35.978,35.964
35.926,35.97
35.872,35.983
35.818,36
35.764,36.023
35.708,36.049
35.652,36.078
35.596,36.109
35.538,36.142
35.48,36.174
35.422,36.207
35.363,36.238
35.303,36.267
35.244,36.293
35.184,36.315
35.125,36.334
35.066,36.347
35.008,36.355
34.951,36.357
34.897,36.354
34.845,36.345
34.797,36.329
34.752,36.308
34.712,36.281
34.676,36.248
34.645,36.211
34.617,36.168
34.593,36.121
34.572,36.07
34.554,36.016
34.539,35.959
34.526,35.899
34.515,35.837
34.506,35.774
34.499,35.71
34.494,35.646
34.491,35.581
34.489,35.516
34.488,35.452
34.489,35.389
34.489,35.326
34.491,35.264
34.493,35.203
34.495,35.142
34.496,35.082
34.498,35.022
34.498,34.963
34.496,34.904
34.494,34.846
34.489,34.788
34.483,34.732
34.476,34.677
34.467,34.624
34.457,34.571
34.446,34.52
34.433,34.471
34.421,34.422
34.407,34.375
34.393,34.33
34.378,34.286
34.363,34.243
34.346,34.203
34.329,34.163
34.311,34.126
34.293,34.09
34.274,34.055
34.255,34.022
34.235,33.991
34.214,33.96
34.194,33.931
34.172,33.902
34.151,33.874
34.129,33.847
34.107,33.821
34.085,33.796
34.063,33.772
34.041,33.75
34.019,33.729
33.998,33.711
33.977,33.694
33.955,33.678
33.934,33.664
33.913,33.65
33.891,33.637
33.87,33.626
33.848,33.614
33.826,33.604
33.803,33.593
33.779,33.583
33.754,33.573
33.728,33.562
33.701,33.551
33.673,33.538
33.645,33.523
33.616,33.507
33.588,33.49
33.561,33.47
33.537,33.449
33.515,33.426
33.499,33.402
33.489,33.378
33.488,33.352
33.497,33.328
33.517,33.305
33.551,33.286
33.598,33.272
33.661,33.267
33.739,33.271
33.832,33.289
33.941,33.322
34.064,33.373
34.199,33.446
34.346,33.543
34.502,33.666
34.665,33.816
34.833,33.995
35.003,34.201
35.173,34.436
35.341,34.697
35.506,34.982
35.664,35.288
35.814,35.612
35.955,35.95
36.085,36.297
36.202,36.65
36.307,37.003
36.398,37.351
36.474,37.691
36.537,38.019
36.587,38.329
36.623,38.619
36.647,38.887
36.66,39.13
36.662,39.347
36.654,39.536
36.637,39.697
36.613,39.829
36.582,39.935
36.547,40.014
36.507,40.068
36.463,40.097
36.416,40.104
36.368,40.091
36.317,40.058
36.265,40.009
36.211,39.944
36.157,39.866
36.102,39.776
36.047,39.677
35.991,39.571
35.935,39.459
35.878,39.343
35.82,39.223
35.763,39.101
35.705,38.977
35.646,38.853
35.587,38.73
35.529,38.607
35.471,38.486
35.413,38.368
35.355,38.251
35.298,38.136
35.242,38.023
35.187,37.912
35.134,37.803
35.082,37.694
35.033,37.586
34.986,37.48
34.942,37.373
34.901,37.268
34.863,37.165
34.827,37.063
34.795,36.964
34.766,36.868
34.739,36.777
34.717,36.689
34.697,36.607
34.681,36.532
34.668,36.464
34.658,36.405
34.651,36.354
34.647,36.312
34.645,36.279
34.646,36.255
34.649,36.239
34.652,36.231
34.656,36.231
34.66,36.237
34.662,36.25
34.664,36.269
34.664,36.293
34.662,36.321
34.657,36.354
34.651,36.389
34.644,36.427
34.635,36.466
34.625,36.506
34.614,36.545
34.602,36.584
34.591,36.622
34.578,36.658
34.566,36.691
34.554,36.721
34.542,36.747
34.53,36.769
34.518,36.786
34.506,36.799
34.493,36.806
34.478,36.81
34.462,36.808
34.445,36.801
34.425,36.789
34.404,36.772
34.381,36.749
34.356,36.721
34.329,36.688
34.302,36.65
34.274,36.607
34.245,36.56
34.216,36.509
34.187,36.455
34.159,36.398
34.131,36.339
34.105,36.278
34.079,36.215
34.055,36.15
34.032,36.084
34.009,36.018
33.987,35.952
33.965,35.886
33.944,35.821
33.923,35.756
33.902,35.691
33.88,35.627
33.859,35.563
33.838,35.499
33.817,35.435
33.796,35.371
33.776,35.308
33.756,35.246
33.736,35.184
33.717,35.125
33.698,35.066
33.681,35.009
33.665,34.954
33.652,34.899
33.642,34.846
33.636,34.793
33.637,34.741
33.646,34.69
33.666,34.64
33.697,34.591
33.742,34.543
33.801,34.496
33.876,34.451
33.967,34.408
34.074,34.366
34.196,34.327
34.332,34.289
34.482,34.254
34.644,34.22
34.816,34.189
34.995,34.159
35.18,34.132
35.367,34.106
35.555,34.081
35.74,34.058
35.921,34.036
36.093,34.014
36.257,33.992
36.409,33.971
36.548,33.95
36.673,33.929
36.783,33.907
36.878,33.886
36.958,33.865
37.024,33.845
37.076,33.825
37.115,33.806
37.141,33.786
37.157,33.768
37.162,33.748
37.159,33.729
37.147,33.709
37.129,33.689
37.106,33.668
37.078,33.647
37.045,33.625
37.01,33.602
36.971,33.578
36.93,33.553
36.887,33.529
36.842,33.506
36.797,33.485
36.752,33.469
36.706,33.46
36.66,33.46
36.613,33.472
36.567,33.5
36.52,33.547
36.473,33.617
36.425,33.712
36.377,33.835
36.328,33.989
36.278,34.173
36.227,34.389
36.174,34.636
36.12,34.913
36.065,35.217
36.01,35.546
35.954,35.895
35.899,36.261
35.845,36.638
35.792,37.022
35.742,37.406
35.693,37.787
35.647,38.159
35.604,38.518
35.564,38.859
35.526,39.179
35.492,39.475
