Trial 1:0back,Trial 6:0back
35.314,33.234
35.321,33.212
35.333,33.19
35.346,33.169
35.36,33.148
35.373,33.127
35.383,33.107
35.389,33.087
35.391,33.068
35.387,33.05
35.376,33.031
35.359,33.011
35.335,32.99
35.305,32.967
35.267,32.942
35.225,32.917
35.177,32.891
35.126,32.864
35.072,32.837
35.015,32.812
34.956,32.79
34.895,32.772
34.834,32.763
34.772,32.764
34.711,32.778
34.651,32.806
34.592,32.852
34.533,32.916
34.475,32.998
34.415,33.1
34.355,33.22
34.293,33.358
34.231,33.51
34.168,33.675
34.106,33.849
34.044,34.028
33.984,34.211
33.925,34.395
33.867,34.576
33.812,34.753
33.758,34.923
33.706,35.083
33.656,35.231
33.607,35.365
33.559,35.483
33.511,35.587
33.464,35.676
33.417,35.752
33.369,35.816
33.322,35.869
33.274,35.911
33.225,35.943
33.175,35.968
33.124,35.986
33.072,35.999
33.018,36.006
32.963,36.007
32.907,36.002
32.847,35.994
32.785,35.98
32.719,35.963
32.65,35.94
32.579,35.912
32.506,35.878
32.432,35.838
32.358,35.795
32.284,35.75
32.211,35.704
32.14,35.659
32.072,35.617
32.007,35.577
31.947,35.538
31.894,35.502
31.848,35.466
31.81,35.429
31.783,35.392
31.767,35.352
31.764,35.309
31.777,35.265
31.806,35.219
31.854,35.17
31.922,35.12
32.014,35.069
32.128,35.019
32.268,34.972
32.431,34.927
32.618,34.887
32.826,34.85
33.055,34.818
33.3,34.791
33.56,34.769
33.832,34.751
34.111,34.737
34.395,34.724
34.681,34.713
34.964,34.703
35.242,34.696
35.512,34.69
35.77,34.686
36.014,34.683
36.244,34.678
36.456,34.672
36.651,34.664
36.827,34.653
36.982,34.641
37.116,34.628
37.229,34.614
37.32,34.6
37.391,34.587
37.441,34.574
37.474,34.563
37.488,34.552
37.486,34.542
37.469,34.533
37.438,34.526
37.396,34.519
37.344,34.514
37.285,34.509
37.22,34.505
37.151,34.5
37.079,34.494
37.005,34.485
36.929,34.473
36.851,34.458
36.772,34.438
36.691,34.414
36.609,34.388
36.525,34.36
36.44,34.333
36.353,34.306
36.264,34.282
36.171,34.259
36.076,34.238
35.976,34.218
35.874,34.201
35.77,34.186
35.664,34.172
35.557,34.159
35.452,34.147
35.349,34.134
35.248,34.122
35.15,34.108
35.055,34.094
34.964,34.077
34.878,34.057
34.796,34.034
34.719,34.009
34.647,33.983
34.58,33.957
34.517,33.931
34.46,33.905
34.409,33.877
34.364,33.849
34.325,33.819
34.292,33.79
34.264,33.762
34.241,33.734
34.222,33.708
34.207,33.683
34.194,33.66
34.183,33.639
34.175,33.62
34.17,33.604
34.167,33.587
34.166,33.57
34.167,33.552
34.171,33.532
34.175,33.513
34.18,33.493
34.187,33.474
34.193,33.456
34.198,33.438
34.202,33.42
34.203,33.403
34.201,33.387
34.197,33.373
34.189,33.36
34.177,33.348
34.161,33.335
34.142,33.323
34.118,33.311
34.09,33.299
34.057,33.288
34.022,33.278
33.982,33.268
33.941,33.259
33.897,33.251
33.853,33.247
33.808,33.249
33.765,33.26
33.722,33.281
33.681,33.315
33.641,33.362
33.604,33.423
33.568,33.5
33.534,33.592
33.502,33.697
33.471,33.816
33.44,33.946
33.408,34.086
33.374,34.233
33.338,34.386
33.302,34.541
33.264,34.696
33.228,34.848
33.191,34.995
33.156,35.133
33.122,35.261
33.09,35.378
33.059,35.48
33.029,35.569
32.999,35.644
32.969,35.705
32.938,35.754
32.906,35.791
32.871,35.818
32.834,35.836
32.793,35.847
32.75,35.852
32.702,35.853
32.651,35.85
32.597,35.843
32.541,35.833
32.484,35.818
32.427,35.799
32.371,35.777
32.316,35.752
32.264,35.723
32.215,35.691
32.169,35.656
32.128,35.619
32.091,35.58
32.059,35.541
32.033,35.501
32.012,35.461
31.996,35.42
31.985,35.38
31.979,35.339
31.977,35.299
31.979,35.26
31.986,35.221
31.998,35.183
32.016,35.147
32.043,35.111
32.08,35.076
32.13,35.04
32.195,35.002
32.277,34.964
32.376,34.926
32.496,34.888
32.636,34.85
32.796,34.814
32.975,34.778
33.173,34.742
33.387,34.708
33.613,34.676
33.849,34.646
34.09,34.619
34.332,34.595
34.57,34.573
34.801,34.554
35.021,34.538
35.227,34.525
35.416,34.515
35.588,34.507
35.741,34.501
35.874,34.496
35.99,34.492
36.088,34.489
36.171,34.486
36.24,34.486
36.297,34.487
36.344,34.488
36.381,34.489
36.409,34.489
36.427,34.49
36.436,34.49
36.437,34.49
36.43,34.489
36.415,34.488
36.392,34.487
36.362,34.486
36.325,34.485
36.282,34.484
36.233,34.482
36.178,34.478
36.118,34.472
36.052,34.463
35.981,34.452
35.905,34.438
35.825,34.423
35.74,34.407
35.65,34.39
35.557,34.372
35.461,34.352
35.364,34.331
35.267,34.308
35.17,34.283
35.076,34.256
34.985,34.229
34.898,34.202
34.816,34.175
34.74,34.15
34.671,34.125
34.608,34.101
34.552,34.078
34.502,34.055
34.458,34.034
34.42,34.012
34.385,33.99
34.355,33.967
34.328,33.944
34.303,33.921
34.28,33.898
34.259,33.877
34.241,33.858
34.224,33.84
34.209,33.822
34.196,33.804
34.184,33.785
34.175,33.767
34.168,33.75
34.162,33.734
34.159,33.72
34.158,33.708
34.158,33.697
34.161,33.687
34.166,33.679
34.173,33.672
34.182,33.664
34.193,33.657
34.205,33.65
34.216,33.642
34.226,33.634
34.235,33.624
34.241,33.614
34.243,33.601
34.24,33.587
34.232,33.571
34.218,33.553
34.198,33.534
34.17,33.514
34.136,33.492
34.096,33.469
34.051,33.443
34.001,33.416
33.948,33.388
33.894,33.36
33.839,33.333
33.787,33.307
33.737,33.282
33.691,33.259
33.651,33.24
33.616,33.225
33.588,33.217
33.567,33.217
33.551,33.228
33.54,33.25
33.533,33.285
33.528,33.334
33.525,33.397
33.523,33.474
33.519,33.566
33.512,33.672
33.501,33.791
33.484,33.921
33.461,34.061
33.432,34.207
33.396,34.356
33.355,34.505
33.307,34.652
33.255,34.793
33.2,34.928
33.141,35.053
33.083,35.168
33.026,35.272
32.973,35.362
32.924,35.44
32.88,35.505
32.843,35.558
32.811,35.598
32.786,35.626
32.765,35.643
32.747,35.65
32.73,35.649
32.713,35.642
32.694,35.629
32.673,35.611
32.647,35.59
32.618,35.567
32.585,35.542
32.55,35.517
32.513,35.493
32.477,35.47
32.445,35.449
32.418,35.429
32.402,35.41
32.399,35.391
32.413,35.37
32.448,35.348
32.506,35.324
32.59,35.298
32.698,35.269
32.832,35.239
32.988,35.208
33.165,35.175
33.358,35.141
33.563,35.105
33.776,35.068
33.993,35.032
34.209,34.997
34.42,34.962
34.623,34.929
34.816,34.897
34.996,34.867
35.162,34.838
35.314,34.812
35.45,34.788
35.572,34.765
35.68,34.744
35.774,34.723
35.855,34.703
35.922,34.684
35.978,34.667
36.022,34.653
36.055,34.64
36.079,34.628
36.093,34.619
36.098,34.611
36.095,34.605
36.085,34.6
36.068,34.597
36.045,34.596
36.016,34.596
35.982,34.599
35.943,34.603
35.899,34.608
35.851,34.612
35.799,34.615
35.744,34.617
35.685,34.618
35.624,34.619
35.562,34.621
35.499,34.622
35.436,34.624
35.374,34.627
35.311,34.63
35.25,34.633
35.188,34.636
35.127,34.638
35.067,34.639
35.007,34.639
34.947,34.637
34.885,34.635
34.822,34.633
34.758,34.63
34.693,34.625
34.628,34.62
34.563,34.612
34.501,34.601
34.441,34.589
34.385,34.574
34.334,34.558
34.29,34.54
34.254,34.521
34.226,34.5
34.204,34.477
34.19,34.454
34.183,34.43
34.181,34.406
34.184,34.382
34.192,34.358
34.204,34.337
34.22,34.317
34.239,34.3
34.259,34.286
34.281,34.273
34.302,34.261
34.321,34.249
34.339,34.237
34.353,34.226
34.364,34.213
34.371,34.2
34.372,34.187
34.369,34.173
34.359,34.16
34.344,34.146
34.323,34.132
34.296,34.118
34.263,34.103
34.225,34.087
34.183,34.072
34.139,34.058
34.093,34.046
34.047,34.035
34.003,34.027
33.961,34.019
33.922,34.014
33.887,34.009
33.856,34.004
33.83,33.998
33.809,33.991
33.791,33.981
33.777,33.969
33.765,33.954
33.754,33.938
33.743,33.918
33.732,33.896
33.718,33.871
33.701,33.845
33.681,33.818
33.655,33.794
33.625,33.775
33.59,33.765
33.551,33.767
33.508,33.781
33.461,33.809
33.412,33.853
33.361,33.912
33.31,33.987
33.259,34.077
33.208,34.181
33.16,34.296
33.113,34.422
33.069,34.556
33.028,34.696
32.991,34.84
32.956,34.985
32.924,35.128
32.895,35.265
32.87,35.396
32.848,35.518
32.829,35.632
32.812,35.736
32.796,35.829
32.779,35.91
32.761,35.979
32.742,36.036
32.719,36.083
32.691,36.12
32.658,36.148
32.62,36.168
32.578,36.181
32.531,36.186
32.482,36.185
32.433,36.179
32.385,36.167
32.341,36.151
32.304,36.129
32.275,36.105
32.258,36.078
32.255,36.05
32.269,36.02
32.302,35.99
32.355,35.958
32.429,35.927
32.525,35.897
32.643,35.866
32.782,35.834
32.941,35.8
33.118,35.765
33.31,35.727
33.515,35.689
33.729,35.649
33.947,35.609
34.166,35.568
34.38,35.525
34.585,35.482
34.78,35.438
34.96,35.394
35.124,35.352
35.272,35.31
35.402,35.271
35.514,35.232
35.608,35.195
35.684,35.16
35.743,35.125
35.788,35.092
35.818,35.06
35.837,35.03
35.846,35.002
35.846,34.976
35.839,34.953
35.826,34.932
35.808,34.912
35.785,34.896
35.758,34.881
35.728,34.87
35.695,34.86
35.658,34.851
35.618,34.844
35.573,34.837
35.525,34.832
35.471,34.828
35.413,34.825
35.352,34.823
35.287,34.821
35.219,34.817
35.149,34.814
35.077,34.811
35.004,34.809
34.931,34.81
34.859,34.813
34.789,34.818
34.722,34.824
34.657,34.831
34.596,34.839
34.538,34.847
34.484,34.855
34.432,34.864
34.384,34.871
34.339,34.878
34.297,34.884
34.259,34.889
34.223,34.893
34.189,34.898
34.156,34.901
34.126,34.902
34.097,34.901
34.068,34.898
34.041,34.892
34.016,34.883
33.992,34.871
33.97,34.853
33.951,34.831
33.933,34.804
33.917,34.773
33.902,34.738
33.888,34.699
33.875,34.658
33.863,34.616
33.852,34.574
33.841,34.533
33.831,34.492
33.823,34.451
33.815,34.41
33.808,34.369
33.802,34.329
33.794,34.291
33.785,34.255
33.774,34.221
33.761,34.189
33.747,34.157
33.731,34.128
33.713,34.099
33.692,34.072
33.669,34.046
33.642,34.021
33.612,33.995
33.58,33.969
33.544,33.945
33.505,33.921
33.465,33.9
33.423,33.882
33.379,33.864
33.336,33.847
33.294,33.83
33.255,33.811
33.218,33.792
33.184,33.772
33.153,33.75
33.125,33.726
33.099,33.701
33.075,33.676
33.051,33.652
33.026,33.632
33,33.616
32.973,33.607
32.944,33.607
32.913,33.62
32.88,33.646
32.846,33.689
32.812,33.748
32.778,33.825
32.745,33.917
32.713,34.025
32.683,34.147
32.654,34.284
32.626,34.434
32.599,34.596
32.574,34.768
32.552,34.946
32.532,35.128
32.514,35.311
32.499,35.492
32.486,35.668
32.476,35.837
32.467,35.996
32.46,36.143
32.454,36.278
32.448,36.398
32.442,36.505
32.435,36.596
32.426,36.673
32.417,36.736
32.406,36.787
32.394,36.827
32.381,36.857
32.368,36.877
32.356,36.889
32.345,36.892
32.335,36.889
32.329,36.879
32.325,36.863
32.324,36.84
32.326,36.812
32.33,36.78
32.335,36.744
32.341,36.705
32.348,36.666
32.355,36.626
32.363,36.586
32.373,36.545
32.386,36.503
32.402,36.462
32.424,36.421
32.454,36.381
32.495,36.342
32.548,36.303
32.618,36.264
32.707,36.226
32.817,36.188
32.948,36.15
33.1,36.112
33.274,36.072
33.466,36.032
33.675,35.993
33.897,35.953
34.129,35.914
34.365,35.875
34.6,35.837
34.83,35.799
35.05,35.763
35.255,35.728
35.442,35.695
35.607,35.665
35.749,35.636
35.867,35.61
35.961,35.585
36.031,35.563
36.079,35.542
36.104,35.523
36.11,35.506
36.099,35.49
36.074,35.477
36.037,35.467
35.992,35.459
35.942,35.453
35.89,35.451
35.838,35.449
35.788,35.448
35.741,35.448
35.699,35.447
35.661,35.446
35.627,35.444
35.596,35.441
35.567,35.438
35.538,35.435
35.506,35.432
35.471,35.427
35.43,35.422
35.383,35.415
35.329,35.407
35.269,35.399
35.202,35.392
35.129,35.386
35.053,35.381
34.973,35.376
34.893,35.37
34.813,35.364
34.736,35.357
34.663,35.351
34.595,35.344
34.533,35.337
34.476,35.329
34.425,35.319
34.38,35.308
34.34,35.296
34.305,35.282
34.274,35.267
34.246,35.249
34.221,35.23
34.196,35.209
34.17,35.188
34.144,35.167
34.118,35.145
34.09,35.123
34.061,35.1
34.032,35.077
34.002,35.052
33.972,35.025
33.941,34.996
33.911,34.964
33.882,34.931
33.855,34.897
33.83,34.861
33.807,34.825
33.787,34.788
33.769,34.75
33.755,34.712
33.745,34.673
33.739,34.637
33.736,34.603
33.736,34.573
33.741,34.546
33.747,34.522
33.756,34.5
33.766,34.479
33.775,34.46
33.784,34.443
33.79,34.426
33.794,34.411
33.794,34.396
33.79,34.381
33.781,34.364
33.766,34.346
33.747,34.327
33.724,34.306
33.696,34.284
33.664,34.262
33.629,34.243
33.592,34.228
33.553,34.219
33.513,34.219
33.473,34.229
33.433,34.252
33.393,34.29
33.354,34.343
33.315,34.413
33.277,34.502
33.239,34.609
33.202,34.734
33.167,34.874
33.134,35.03
33.102,35.198
33.073,35.376
33.045,35.56
33.018,35.748
32.99,35.939
32.963,36.129
32.934,36.318
32.905,36.502
32.875,36.679
32.844,36.848
32.813,37.006
32.782,37.153
32.752,37.289
32.722,37.411
32.692,37.52
32.662,37.617
32.632,37.702
32.602,37.775
32.571,37.835
32.54,37.883
32.509,37.919
32.479,37.943
32.448,37.957
32.419,37.962
32.39,37.958
32.364,37.946
32.339,37.928
32.316,37.903
32.294,37.872
32.274,37.836
32.255,37.794
32.238,37.749
32.222,37.699
32.207,37.646
32.192,37.59
32.178,37.534
32.164,37.477
32.148,37.422
32.13,37.369
32.11,37.318
32.088,37.269
32.066,37.223
32.043,37.178
32.022,37.134
32.004,37.09
31.992,37.045
31.988,37
31.995,36.955
32.017,36.908
32.054,36.861
32.11,36.813
32.186,36.766
32.282,36.719
32.399,36.675
32.536,36.631
32.692,36.588
32.863,36.545
33.048,36.502
33.241,36.46
33.441,36.419
33.642,36.381
33.842,36.345
34.036,36.313
34.221,36.285
34.393,36.26
34.551,36.238
34.693,36.219
34.817,36.203
34.923,36.19
35.012,36.179
35.085,36.171
35.142,36.167
35.187,36.164
35.219,36.163
35.239,36.162
35.249,36.162
35.25,36.163
35.244,36.164
35.233,36.167
35.217,36.169
35.199,36.169
35.179,36.167
35.157,36.163
35.134,36.157
35.109,36.147
35.083,36.134
35.055,36.119
35.026,36.101
34.994,36.08
34.961,36.058
34.925,36.034
34.888,36.008
34.851,35.981
34.815,35.955
34.779,35.928
34.744,35.902
34.711,35.877
34.679,35.852
34.647,35.828
34.616,35.805
34.584,35.782
34.551,35.76
34.515,35.738
34.478,35.715
34.438,35.69
34.395,35.663
34.351,35.635
34.305,35.605
34.259,35.574
34.213,35.543
34.167,35.512
34.12,35.48
34.075,35.446
34.033,35.41
33.993,35.374
33.957,35.338
33.926,35.303
33.901,35.268
33.881,35.233
33.867,35.199
33.859,35.164
33.855,35.131
33.856,35.097
33.861,35.063
33.869,35.03
33.881,34.997
33.895,34.964
33.911,34.931
33.93,34.899
33.951,34.868
33.972,34.836
33.995,34.805
34.016,34.774
34.036,34.743
34.054,34.713
34.07,34.685
34.082,34.659
34.091,34.635
34.096,34.615
34.097,34.597
34.093,34.581
34.085,34.567
34.074,34.553
34.06,34.538
34.044,34.521
34.027,34.502
34.009,34.482
33.992,34.46
33.976,34.436
33.963,34.41
33.953,34.382
33.947,34.356
33.944,34.334
33.944,34.319
33.946,34.313
33.949,34.321
33.951,34.343
33.952,34.383
33.952,34.443
33.948,34.524
33.942,34.627
33.933,34.75
33.919,34.891
33.901,35.048
33.877,35.219
33.848,35.402
33.815,35.595
33.779,35.795
33.742,36
33.705,36.205
33.668,36.408
33.632,36.607
33.599,36.797
33.569,36.975
33.543,37.141
33.521,37.292
33.503,37.427
33.489,37.546
33.479,37.648
33.471,37.733
33.467,37.799
33.465,37.848
33.467,37.883
33.469,37.904
33.473,37.915
33.475,37.917
33.475,37.912
33.472,37.9
33.463,37.882
33.449,37.858
33.428,37.83
33.401,37.797
33.368,37.76
33.329,37.719
33.288,37.676
33.244,37.63
33.2,37.582
33.158,37.531
33.119,37.478
33.085,37.424
33.056,37.371
33.035,37.317
33.019,37.264
33.011,37.212
33.008,37.16
33.012,37.108
33.021,37.058
33.036,37.009
33.056,36.959
33.083,36.91
33.117,36.86
33.16,36.81
33.212,36.761
33.274,36.712
33.346,36.664
33.43,36.617
33.526,36.572
33.633,36.529
33.751,36.491
33.88,36.456
34.019,36.426
34.167,36.399
34.322,36.374
34.483,36.352
34.648,36.331
34.814,36.312
34.977,36.293
35.136,36.275
35.288,36.257
35.431,36.239
35.562,36.223
35.68,36.209
35.784,36.195
35.873,36.183
35.945,36.17
36.001,36.157
36.039,36.146
36.06,36.136
36.064,36.128
36.054,36.121
36.031,36.116
35.997,36.111
35.955,36.107
35.907,36.105
35.855,36.102
35.802,36.1
35.749,36.097
35.698,36.093
35.65,36.088
35.605,36.082
35.563,36.073
35.525,36.062
35.49,36.048
35.456,36.032
35.423,36.014
35.39,35.994
35.355,35.974
35.317,35.954
35.275,35.933
35.229,35.912
35.178,35.891
35.122,35.868
35.061,35.843
34.997,35.816
34.931,35.785
34.864,35.751
34.798,35.715
34.734,35.679
34.672,35.642
34.613,35.603
34.559,35.563
34.509,35.522
34.466,35.481
34.428,35.441
34.395,35.402
34.369,35.365
34.347,35.328
34.33,35.292
34.318,35.257
34.308,35.223
34.303,35.19
34.3,35.158
34.301,35.126
34.305,35.094
34.311,35.062
34.32,35.03
34.332,34.999
34.345,34.968
34.359,34.936
34.373,34.903
34.386,34.871
34.398,34.838
34.409,34.807
34.417,34.776
34.424,34.747
34.429,34.719
34.433,34.691
34.436,34.665
34.438,34.638
34.439,34.612
34.44,34.585
34.439,34.557
34.438,34.528
34.436,34.499
34.432,34.47
34.427,34.44
34.419,34.409
34.409,34.376
34.397,34.341
34.382,34.304
34.366,34.267
34.348,34.23
34.328,34.195
34.306,34.164
34.283,34.138
34.259,34.122
34.233,34.119
34.206,34.131
34.177,34.16
34.145,34.207
34.11,34.273
34.074,34.357
34.035,34.459
33.995,34.58
33.954,34.718
33.912,34.872
33.87,35.038
33.828,35.214
33.787,35.396
33.747,35.582
33.709,35.768
33.674,35.955
33.642,36.138
33.612,36.317
33.585,36.489
33.56,36.652
33.537,36.804
33.515,36.942
33.494,37.064
33.475,37.169
33.458,37.257
33.443,37.33
33.431,37.385
33.421,37.425
33.412,37.448
33.407,37.457
33.403,37.454
33.401,37.44
33.4,37.417
33.399,37.386
33.397,37.349
33.395,37.306
33.391,37.259
33.384,37.21
33.376,37.158
33.365,37.105
33.353,37.049
33.339,36.992
33.324,36.934
33.307,36.875
33.289,36.815
33.271,36.756
33.254,36.696
33.239,36.636
33.225,36.576
33.213,36.516
33.203,36.455
33.196,36.395
33.191,36.334
33.19,36.273
33.194,36.212
33.203,36.151
33.219,36.09
33.244,36.03
33.279,35.971
33.326,35.913
33.386,35.859
33.462,35.809
33.553,35.762
33.66,35.719
33.783,35.68
33.921,35.644
34.071,35.612
34.234,35.584
34.406,35.558
34.586,35.535
34.77,35.513
34.954,35.492
35.136,35.474
35.312,35.458
35.479,35.446
35.634,35.436
35.775,35.428
35.9,35.42
36.008,35.412
36.099,35.403
36.174,35.393
36.234,35.382
36.28,35.371
36.313,35.36
36.334,35.348
36.344,35.335
36.345,35.324
36.339,35.312
36.325,35.301
36.306,35.29
36.281,35.28
36.252,35.27
36.219,35.262
36.182,35.254
36.144,35.246
36.104,35.237
36.065,35.226
36.026,35.214
35.989,35.2
35.954,35.185
35.921,35.168
35.892,35.149
35.864,35.129
35.838,35.107
35.813,35.086
35.787,35.065
35.759,35.044
35.727,35.023
35.693,35.002
35.654,34.98
35.611,34.957
35.564,34.935
35.513,34.912
35.461,34.887
35.407,34.862
35.354,34.835
35.304,34.807
35.257,34.777
35.215,34.746
35.178,34.714
35.147,34.68
35.122,34.645
35.103,34.608
35.09,34.571
35.081,34.533
35.076,34.495
35.072,34.459
35.069,34.425
35.066,34.393
35.061,34.362
35.054,34.333
35.045,34.306
35.033,34.279
35.02,34.254
35.004,34.231
34.988,34.208
34.97,34.188
34.952,34.169
34.933,34.15
34.915,34.129
34.899,34.106
34.885,34.08
34.875,34.052
34.867,34.022
34.864,33.99
34.862,33.957
34.862,33.921
34.863,33.885
34.864,33.847
34.863,33.81
34.859,33.774
34.852,33.737
34.842,33.699
34.827,33.659
34.809,33.618
34.787,33.577
34.763,33.536
34.736,33.499
34.709,33.467
34.681,33.442
34.654,33.425
34.628,33.419
34.603,33.427
34.581,33.45
34.561,33.49
34.543,33.546
34.527,33.62
34.513,33.711
34.498,33.818
34.48,33.942
34.459,34.08
34.433,34.231
34.401,34.392
34.363,34.561
34.319,34.735
34.27,34.912
34.218,35.088
34.163,35.262
34.106,35.43
34.048,35.59
33.99,35.738
33.932,35.873
33.874,35.992
33.817,36.094
33.761,36.177
33.707,36.242
33.656,36.291
33.606,36.324
33.56,36.344
33.516,36.353
33.477,36.351
33.442,36.34
33.412,36.322
33.39,36.299
33.375,36.271
33.367,36.239
33.368,36.202
33.376,36.162
33.392,36.118
33.415,36.071
33.445,36.021
33.48,35.968
33.518,35.914
33.558,35.858
33.596,35.799
33.633,35.739
33.664,35.678
33.689,35.615
33.707,35.552
33.715,35.489
33.714,35.426
33.702,35.364
33.681,35.304
33.651,35.246
33.613,35.19
33.57,35.137
33.524,35.086
33.476,35.039
33.427,34.996
33.38,34.958
33.336,34.922
33.297,34.888
33.264,34.854
33.24,34.821
33.227,34.788
33.227,34.755
33.24,34.722
33.268,34.691
33.312,34.66
33.374,34.631
33.452,34.604
33.546,34.58
33.655,34.56
33.778,34.544
33.912,34.532
34.055,34.522
34.204,34.515
34.358,34.51
34.512,34.508
34.665,34.507
34.814,34.508
34.956,34.51
35.09,34.513
35.214,34.517
35.327,34.521
35.427,34.525
35.515,34.53
35.589,34.534
35.651,34.538
35.701,34.542
35.738,34.546
35.762,34.549
35.773,34.551
35.771,34.55
35.757,34.547
35.733,34.541
35.698,34.532
35.655,34.521
35.605,34.507
35.548,34.492
35.488,34.476
35.425,34.459
35.36,34.443
35.294,34.427
35.229,34.411
35.164,34.394
35.099,34.376
35.036,34.356
34.974,34.336
34.914,34.315
34.857,34.294
34.801,34.274
34.747,34.253
34.696,34.232
34.647,34.212
34.599,34.192
34.552,34.173
34.507,34.155
34.462,34.136
34.418,34.116
34.376,34.095
34.336,34.073
34.297,34.05
34.26,34.026
34.224,34.002
34.188,33.977
34.155,33.95
34.122,33.92
34.092,33.889
34.064,33.858
34.038,33.826
34.014,33.794
33.991,33.763
33.971,33.732
33.952,33.702
33.935,33.673
33.921,33.647
33.909,33.621
33.901,33.598
33.896,33.574
33.895,33.551
33.897,33.529
33.902,33.509
33.908,33.489
33.915,33.471
33.922,33.452
33.928,33.433
33.933,33.413
33.938,33.391
33.943,33.367
33.95,33.342
33.959,33.316
33.97,33.291
33.985,33.268
34.003,33.25
34.024,33.239
34.047,33.237
34.072,33.246
34.098,33.269
34.122,33.305
34.143,33.356
34.16,33.422
34.172,33.502
34.18,33.598
34.183,33.708
34.183,33.831
34.178,33.966
34.171,34.111
34.161,34.263
34.148,34.419
34.134,34.575
34.118,34.727
34.103,34.874
34.086,35.015
34.07,35.15
34.054,35.276
34.038,35.394
34.022,35.502
34.005,35.599
33.987,35.686
33.967,35.762
33.947,35.827
33.925,35.882
33.902,35.926
33.878,35.959
33.854,35.983
33.831,35.998
33.81,36.004
33.79,36.003
33.773,35.994
33.758,35.979
33.746,35.959
33.737,35.934
33.73,35.905
33.727,35.873
33.727,35.836
33.731,35.797
33.737,35.755
33.746,35.711
33.756,35.665
33.768,35.618
33.781,35.569
33.796,35.519
33.812,35.468
33.829,35.417
33.845,35.368
33.862,35.321
33.877,35.274
33.89,35.228
33.9,35.182
33.907,35.136
33.91,35.092
33.908,35.049
33.902,35.01
33.891,34.973
33.878,34.939
33.861,34.907
33.841,34.879
33.82,34.853
33.797,34.829
33.773,34.807
33.749,34.788
33.725,34.769
33.702,34.752
33.681,34.737
33.661,34.722
33.644,34.707
33.631,34.693
33.62,34.68
33.613,34.668
33.608,34.657
33.607,34.647
33.609,34.637
33.615,34.627
33.627,34.617
33.644,34.609
33.668,34.603
33.7,34.6
33.741,34.598
33.792,34.596
33.855,34.595
33.929,34.592
34.016,34.588
34.115,34.584
34.226,34.58
34.349,34.577
34.481,34.572
34.62,34.568
34.765,34.563
34.912,34.559
35.059,34.556
35.203,34.554
35.341,34.551
35.472,34.548
35.593,34.544
35.704,34.539
35.803,34.533
35.889,34.527
35.964,34.52
36.027,34.512
36.078,34.504
36.119,34.495
36.15,34.485
36.173,34.473
36.187,34.459
36.194,34.443
36.193,34.425
36.187,34.405
36.175,34.384
36.16,34.36
36.142,34.335
36.122,34.308
36.1,34.278
36.076,34.246
36.051,34.212
36.024,34.176
35.993,34.14
35.96,34.104
35.922,34.069
35.88,34.036
35.835,34.005
35.787,33.977
35.737,33.951
35.686,33.925
35.635,33.899
35.584,33.872
35.536,33.846
35.491,33.819
35.451,33.794
35.416,33.772
35.385,33.751
35.359,33.732
35.336,33.715
35.315,33.701
35.296,33.689
35.278,33.679
35.26,33.669
35.24,33.659
35.219,33.649
35.197,33.637
35.173,33.624
35.146,33.61
35.118,33.597
35.086,33.583
35.053,33.568
35.018,33.55
34.982,33.529
34.944,33.507
34.906,33.482
34.868,33.457
34.83,33.433
34.794,33.411
34.76,33.394
34.729,33.385
34.703,33.387
34.681,33.403
34.664,33.435
34.652,33.483
34.645,33.547
34.645,33.629
34.649,33.728
34.658,33.844
34.672,33.976
34.688,34.123
34.707,34.282
34.727,34.45
34.747,34.624
34.766,34.802
34.783,34.979
34.797,35.153
34.807,35.321
34.814,35.483
34.817,35.637
34.817,35.78
34.813,35.912
34.806,36.031
34.797,36.136
34.785,36.228
34.771,36.307
34.756,36.373
34.738,36.428
34.719,36.472
34.697,36.506
34.673,36.531
34.646,36.547
34.617,36.556
34.586,36.558
34.555,36.553
34.524,36.54
34.494,36.522
34.467,36.498
34.443,36.47
34.423,36.439
34.408,36.405
34.397,36.368
34.391,36.331
34.39,36.292
34.392,36.253
34.397,36.213
34.402,36.172
34.407,36.129
34.41,36.087
34.41,36.044
34.408,36.001
34.402,35.959
34.392,35.916
34.378,35.874
34.36,35.831
34.338,35.788
34.313,35.745
34.285,35.703
34.256,35.662
34.225,35.621
34.194,35.581
34.164,35.542
34.135,35.505
34.108,35.469
34.081,35.435
34.056,35.402
34.032,35.372
34.01,35.345
33.99,35.322
33.971,35.302
33.955,35.286
33.94,35.273
33.928,35.263
33.919,35.255
33.913,35.249
33.911,35.245
33.913,35.241
33.92,35.238
33.931,35.235
33.945,35.234
33.963,35.233
33.985,35.234
34.011,35.236
34.042,35.238
34.079,35.239
34.121,35.24
34.172,35.238
34.23,35.236
34.298,35.233
34.376,35.229
34.465,35.225
34.565,35.22
34.675,35.215
34.795,35.209
34.922,35.203
35.054,35.196
35.191,35.189
35.328,35.183
35.464,35.176
35.596,35.169
35.723,35.162
35.842,35.155
35.955,35.146
36.059,35.136
36.154,35.125
36.238,35.111
36.313,35.096
36.377,35.08
36.429,35.06
36.471,35.038
36.501,35.014
36.52,34.99
36.529,34.964
36.528,34.937
36.518,34.909
36.5,34.88
36.476,34.851
36.446,34.82
36.412,34.791
36.375,34.764
36.337,34.738
36.297,34.714
36.257,34.692
36.216,34.67
36.176,34.648
36.136,34.626
36.096,34.604
36.057,34.581
36.019,34.558
35.982,34.534
35.945,34.511
35.91,34.487
35.875,34.463
35.84,34.437
35.806,34.411
35.772,34.385
35.739,34.359
35.705,34.335
35.672,34.312
35.638,34.29
35.606,34.271
35.574,34.253
35.543,34.238
35.514,34.224
35.487,34.212
35.462,34.2
35.441,34.187
35.421,34.174
35.405,34.159
35.39,34.144
35.377,34.127
35.363,34.108
35.349,34.086
35.332,34.061
35.313,34.034
35.292,34.006
35.268,33.98
35.241,33.956
35.213,33.938
35.184,33.927
35.157,33.925
35.131,33.935
35.108,33.961
35.089,34.004
35.074,34.064
35.062,34.142
35.056,34.237
35.053,34.348
35.054,34.474
35.058,34.614
35.065,34.767
35.073,34.93
35.081,35.101
35.089,35.277
35.095,35.455
35.099,35.633
35.101,35.808
35.1,35.978
35.095,36.141
35.089,36.295
35.081,36.44
35.072,36.575
35.063,36.698
35.054,36.808
35.045,36.903
35.037,36.985
35.029,37.053
35.021,37.108
35.013,37.149
35.005,37.178
34.995,37.194
34.983,37.199
34.97,37.193
34.955,37.179
34.939,37.157
34.921,37.127
34.903,37.093
34.884,37.054
34.865,37.013
34.845,36.971
34.826,36.926
34.805,36.881
34.785,36.833
34.765,36.783
34.744,36.733
34.722,36.682
34.699,36.63
34.676,36.576
34.65,36.523
34.624,36.47
34.597,36.418
34.569,36.368
34.54,36.318
34.513,36.269
34.486,36.221
34.46,36.173
34.437,36.127
34.415,36.081
34.394,36.037
34.375,35.994
34.356,35.951
34.338,35.909
34.32,35.866
34.302,35.824
34.284,35.783
34.265,35.744
34.246,35.707
34.226,35.673
34.207,35.645
34.187,35.621
34.168,35.603
34.148,35.588
34.127,35.576
34.107,35.566
34.086,35.559
34.064,35.553
34.041,35.549
34.017,35.547
33.992,35.544
33.968,35.541
33.946,35.539
33.928,35.536
33.913,35.534
33.905,35.532
33.904,35.531
33.914,35.53
33.934,35.53
33.966,35.531
34.011,35.533
34.07,35.535
34.142,35.536
34.228,35.538
34.327,35.537
34.439,35.535
34.562,35.531
34.696,35.524
34.839,35.515
34.989,35.504
35.143,35.492
35.3,35.48
35.458,35.468
35.614,35.456
35.766,35.443
35.913,35.43
36.052,35.415
36.181,35.398
36.3,35.382
36.406,35.364
36.501,35.346
36.583,35.325
36.653,35.302
36.712,35.277
36.759,35.25
36.795,35.223
36.821,35.195
36.838,35.167
36.847,35.141
36.848,35.115
36.841,35.091
36.826,35.067
36.804,35.043
36.775,35.019
36.738,34.994
36.696,34.969
36.647,34.944
36.594,34.918
36.538,34.89
36.48,34.862
36.42,34.832
36.361,34.801
36.303,34.77
36.247,34.738
36.194,34.706
36.144,34.674
36.096,34.641
36.051,34.609
36.008,34.579
35.967,34.552
35.927,34.527
35.888,34.503
35.85,34.48
35.812,34.457
35.774,34.436
35.737,34.416
35.7,34.397
35.662,34.38
35.624,34.365
35.587,34.351
35.549,34.338
35.512,34.325
35.476,34.311
35.439,34.296
35.403,34.278
35.367,34.259
35.33,34.239
35.294,34.219
35.257,34.203
35.221,34.193
35.184,34.192
35.148,34.2
35.112,34.222
35.077,34.257
35.044,34.309
35.013,34.377
34.984,34.462
34.958,34.564
34.934,34.682
34.914,34.815
34.898,34.962
34.884,35.12
34.874,35.288
34.866,35.46
34.862,35.636
34.86,35.812
34.862,35.988
34.867,36.16
34.876,36.328
34.887,36.49
34.9,36.643
34.915,36.785
34.93,36.917
34.944,37.036
34.957,37.142
34.967,37.234
34.973,37.314
34.974,37.381
34.969,37.435
34.959,37.476
34.942,37.505
34.919,37.522
34.89,37.528
34.857,37.526
34.821,37.517
34.783,37.503
34.745,37.483
34.708,37.46
34.674,37.435
34.643,37.408
34.615,37.38
34.59,37.351
34.567,37.321
34.546,37.288
34.526,37.252
34.507,37.214
34.487,37.172
34.466,37.127
34.445,37.078
34.421,37.024
34.395,36.968
34.367,36.908
34.337,36.846
34.304,36.783
34.27,36.72
34.235,36.657
34.199,36.597
34.164,36.541
34.131,36.489
34.101,36.44
34.074,36.395
34.051,36.352
34.032,36.312
34.015,36.274
34.001,36.238
33.989,36.205
33.978,36.174
33.967,36.144
33.957,36.116
33.945,36.09
33.932,36.066
33.916,36.045
33.897,36.027
33.875,36.012
33.849,36.002
33.82,35.997
33.787,35.996
33.75,36
33.71,36.005
33.668,36.012
33.624,36.02
33.581,36.027
33.538,36.034
33.498,36.038
33.461,36.04
33.429,36.04
33.403,36.036
33.384,36.029
33.371,36.02
33.366,36.01
33.367,35.997
33.376,35.983
33.394,35.966
33.42,35.947
33.455,35.928
33.499,35.908
33.553,35.888
33.618,35.868
33.693,35.848
33.78,35.827
33.878,35.805
33.987,35.782
34.107,35.758
34.237,35.732
34.375,35.704
34.52,35.676
34.668,35.649
34.818,35.621
34.966,35.591
35.112,35.56
35.251,35.526
35.384,35.49
35.508,35.453
35.622,35.416
35.726,35.379
35.819,35.342
35.902,35.307
35.975,35.274
36.037,35.242
36.09,35.213
36.134,35.185
36.169,35.159
36.197,35.135
36.216,35.111
36.227,35.088
36.229,35.066
36.223,35.044
36.209,35.021
36.187,34.997
36.157,34.972
36.12,34.946
36.078,34.917
36.031,34.888
35.981,34.858
35.928,34.827
35.875,34.796
35.822,34.766
35.77,34.736
35.72,34.707
35.672,34.678
35.627,34.648
35.584,34.619
35.543,34.591
35.503,34.563
35.466,34.537
35.431,34.512
35.398,34.489
35.367,34.467
35.338,34.446
35.31,34.425
35.282,34.404
35.255,34.381
35.227,34.357
35.199,34.332
35.171,34.306
35.143,34.282
35.116,34.262
35.09,34.248
35.065,34.243
35.04,34.249
35.015,34.266
34.99,34.298
34.965,34.346
34.942,34.413
34.919,34.5
34.896,34.609
34.875,34.739
34.854,34.888
34.834,35.056
34.815,35.24
34.798,35.438
34.782,35.648
34.767,35.864
34.754,36.086
34.743,36.307
34.732,36.526
34.723,36.738
34.713,36.942
34.704,37.133
34.694,37.31
34.685,37.471
34.675,37.615
34.666,37.743
34.657,37.854
34.647,37.947
34.638,38.024
34.63,38.084
34.623,38.128
34.618,38.156
34.615,38.169
34.615,38.169
34.616,38.157
34.62,38.136
34.626,38.106
34.634,38.069
34.644,38.027
34.654,37.981
34.666,37.933
34.678,37.883
34.688,37.834
34.697,37.784
34.703,37.735
34.706,37.687
34.707,37.639
34.705,37.592
34.7,37.545
34.692,37.498
34.682,37.451
34.669,37.404
34.655,37.357
34.641,37.309
34.627,37.261
34.613,37.212
34.599,37.16
34.586,37.105
34.573,37.048
34.56,36.989
34.547,36.928
34.533,36.864
34.518,36.797
34.503,36.729
34.487,36.662
34.471,36.596
34.454,36.534
34.437,36.474
34.418,36.418
34.398,36.367
34.376,36.321
34.354,36.282
34.33,36.249
34.305,36.223
34.279,36.204
34.252,36.191
34.224,36.182
34.195,36.178
34.165,36.179
34.135,36.183
34.104,36.189
34.072,36.198
34.04,36.208
34.009,36.218
33.977,36.228
33.947,36.235
33.916,36.239
33.887,36.24
33.859,36.24
33.832,36.237
33.806,36.232
33.782,36.224
33.757,36.213
33.733,36.199
33.709,36.181
33.685,36.161
33.662,36.139
33.641,36.114
33.623,36.088
33.609,36.06
33.6,36.03
33.599,35.999
33.606,35.968
33.623,35.938
33.652,35.909
33.693,35.881
33.749,35.855
33.82,35.829
33.906,35.805
34.006,35.781
34.12,35.758
34.247,35.735
34.383,35.711
34.528,35.686
34.68,35.658
34.836,35.627
34.994,35.593
35.151,35.555
35.307,35.516
35.459,35.476
35.605,35.435
35.744,35.395
35.874,35.356
35.995,35.317
36.104,35.279
36.203,35.243
36.29,35.209
36.364,35.177
36.427,35.147
36.479,35.119
36.519,35.093
36.55,35.067
36.572,35.042
36.585,35.019
36.592,34.996
36.593,34.973
36.588,34.95
36.579,34.926
36.565,34.903
36.546,34.879
36.523,34.856
36.498,34.834
36.471,34.813
36.443,34.792
36.415,34.771
36.387,34.751
36.359,34.73
36.331,34.708
36.301,34.685
36.27,34.661
36.237,34.635
36.2,34.608
36.159,34.58
36.115,34.549
36.068,34.515
36.019,34.478
35.969,34.44
35.919,34.403
35.868,34.371
35.818,34.346
35.77,34.331
35.724,34.331
35.68,34.346
35.64,34.381
35.603,34.437
35.57,34.516
35.541,34.619
35.517,34.746
35.496,34.895
35.479,35.067
35.466,35.259
35.457,35.468
35.45,35.692
35.446,35.926
35.444,36.165
35.443,36.405
35.443,36.644
35.443,36.876
35.443,37.1
35.442,37.311
35.44,37.508
35.438,37.689
35.435,37.852
35.432,37.996
35.428,38.119
35.425,38.222
35.423,38.305
35.423,38.37
35.424,38.417
35.428,38.449
35.435,38.466
35.442,38.469
35.451,38.46
35.46,38.441
35.469,38.411
35.476,38.373
35.481,38.328
35.484,38.277
35.483,38.223
35.48,38.165
35.473,38.105
35.462,38.043
35.447,37.98
35.428,37.916
35.405,37.852
35.38,37.789
35.351,37.726
35.319,37.662
35.285,37.598
35.247,37.533
35.207,37.467
35.166,37.401
35.123,37.335
35.08,37.269
35.037,37.202
34.996,37.135
34.958,37.068
34.922,37.002
34.89,36.935
34.861,36.868
34.837,36.803
34.817,36.741
34.801,36.683
34.789,36.629
34.779,36.579
34.771,36.534
34.764,36.495
34.757,36.46
34.748,36.43
34.738,36.405
34.726,36.385
34.712,36.369
34.697,36.357
34.681,36.349
34.663,36.343
34.644,36.337
34.624,36.331
34.602,36.325
34.58,36.319
34.556,36.314
34.53,36.309
34.503,36.307
34.473,36.306
34.439,36.308
34.403,36.31
34.363,36.314
34.32,36.319
34.276,36.325
34.23,36.331
34.183,36.336
34.138,36.34
34.093,36.342
34.051,36.342
34.013,36.339
33.978,36.333
33.947,36.323
33.921,36.31
33.9,36.295
33.885,36.279
33.877,36.262
33.875,36.244
33.881,36.224
33.896,36.203
33.921,36.18
33.959,36.156
34.011,36.13
34.077,36.101
34.16,36.07
34.259,36.037
34.374,36.002
34.503,35.966
34.645,35.928
34.799,35.889
34.96,35.848
35.128,35.803
35.299,35.756
35.471,35.706
35.64,35.657
35.805,35.607
35.962,35.559
36.109,35.513
36.246,35.468
36.37,35.425
36.48,35.385
36.577,35.347
36.66,35.31
36.728,35.275
36.782,35.24
36.825,35.207
36.855,35.174
36.874,35.141
36.883,35.107
36.884,35.072
36.878,35.035
36.865,34.998
36.848,34.959
36.826,34.92
36.799,34.881
36.77,34.842
36.737,34.804
36.701,34.769
36.664,34.737
36.624,34.708
36.583,34.68
36.539,34.655
36.495,34.63
36.45,34.606
36.405,34.583
36.361,34.56
36.318,34.536
36.277,34.51
36.237,34.483
36.199,34.453
36.164,34.422
36.13,34.391
36.099,34.363
36.069,34.339
36.041,34.322
36.015,34.315
35.99,34.32
35.966,34.34
35.941,34.38
35.916,34.44
35.89,34.521
35.862,34.624
35.833,34.749
35.802,34.895
35.771,35.061
35.74,35.246
35.708,35.447
35.676,35.664
35.645,35.891
35.615,36.126
35.588,36.364
35.562,36.603
35.537,36.837
35.514,37.065
35.493,37.284
35.474,37.492
35.457,37.686
35.44,37.864
35.424,38.024
35.41,38.165
35.398,38.286
35.388,38.387
35.382,38.468
35.38,38.53
35.382,38.572
35.388,38.595
35.397,38.602
35.41,38.592
35.424,38.567
35.44,38.53
35.456,38.482
35.472,38.425
35.485,38.363
35.495,38.296
35.501,38.224
35.501,38.149
35.496,38.07
35.485,37.988
35.469,37.904
35.447,37.82
35.419,37.736
35.387,37.653
35.351,37.571
35.312,37.491
35.271,37.41
35.228,37.33
35.184,37.248
35.14,37.165
35.096,37.082
35.053,37.001
35.012,36.921
34.971,36.842
34.932,36.763
34.894,36.684
34.855,36.606
34.817,36.53
34.778,36.457
34.739,36.389
34.699,36.325
34.658,36.266
34.616,36.212
34.574,36.164
34.532,36.122
34.492,36.085
34.455,36.055
34.421,36.03
34.391,36.009
34.366,35.992
34.345,35.979
34.329,35.968
34.316,35.958
34.307,35.95
34.3,35.943
34.294,35.937
34.289,35.932
34.284,35.928
34.276,35.925
34.267,35.923
34.255,35.923
34.241,35.926
34.226,35.931
34.21,35.938
34.194,35.945
34.178,35.951
34.161,35.956
34.145,35.959
34.129,35.961
34.113,35.961
34.097,35.961
34.081,35.959
34.064,35.955
34.047,35.949
34.03,35.942
34.013,35.935
33.997,35.926
33.982,35.917
33.968,35.905
33.957,35.892
33.949,35.876
33.944,35.857
33.944,35.834
33.949,35.808
33.961,35.777
33.982,35.743
34.012,35.706
34.055,35.666
34.111,35.625
34.183,35.583
34.272,35.539
34.378,35.495
34.501,35.45
34.64,35.406
34.792,35.361
34.957,35.316
35.129,35.271
35.306,35.225
35.485,35.181
35.66,35.138
35.83,35.098
35.99,35.059
36.14,35.021
36.278,34.983
36.403,34.946
36.514,34.908
36.611,34.871
36.695,34.834
36.766,34.796
36.825,34.759
36.873,34.721
36.912,34.683
36.941,34.645
36.961,34.609
36.974,34.572
36.981,34.535
36.981,34.499
36.977,34.463
36.968,34.428
36.957,34.395
36.944,34.362
36.928,34.328
36.912,34.294
36.894,34.258
36.875,34.22
36.854,34.182
36.831,34.143
36.805,34.103
36.778,34.063
36.747,34.024
36.715,33.989
36.679,33.96
36.641,33.939
36.6,33.928
36.558,33.932
36.514,33.95
36.469,33.987
36.424,34.044
36.377,34.123
36.33,34.224
36.282,34.348
36.234,34.494
36.187,34.662
36.141,34.851
36.096,35.058
36.052,35.28
36.01,35.514
35.97,35.756
35.931,36.003
35.893,36.252
35.858,36.499
35.823,36.739
35.79,36.97
35.758,37.188
35.728,37.389
35.699,37.572
35.671,37.734
35.643,37.875
35.617,37.994
35.592,38.092
35.569,38.17
35.547,38.229
35.529,38.269
35.514,38.292
35.503,38.299
35.495,38.291
35.491,38.268
35.491,38.233
35.495,38.188
35.501,38.132
35.511,38.068
35.522,37.996
35.534,37.918
35.546,37.834
35.558,37.743
35.569,37.648
35.58,37.55
35.588,37.449
35.593,37.348
35.594,37.247
35.59,37.147
35.581,37.047
35.565,36.948
35.543,36.851
35.515,36.757
35.484,36.666
35.449,36.578
35.414,36.493
35.378,36.412
35.344,36.334
35.311,36.259
35.28,36.187
35.253,36.116
35.23,36.047
35.211,35.981
35.195,35.916
35.181,35.854
35.168,35.796
35.156,35.742
35.143,35.692
35.129,35.646
35.114,35.604
35.097,35.568
35.078,35.538
35.058,35.512
35.037,35.492
35.014,35.476
34.99,35.465
34.965,35.459
34.94,35.457
34.914,35.458
34.888,35.461
34.863,35.467
34.839,35.474
34.815,35.482
34.793,35.492
34.772,35.503
34.754,35.514
34.738,35.525
34.725,35.536
34.714,35.546
34.706,35.554
34.698,35.559
34.692,35.559
34.684,35.556
34.674,35.549
34.662,35.541
34.647,35.531
34.628,35.519
34.605,35.504
34.579,35.488
34.547,35.47
34.512,35.451
34.473,35.431
34.431,35.41
34.388,35.389
34.344,35.366
34.299,35.344
34.255,35.321
34.213,35.299
34.174,35.278
34.137,35.256
34.105,35.234
34.078,35.211
34.057,35.185
34.043,35.157
34.037,35.126
34.039,35.093
34.051,35.057
34.072,35.019
34.105,34.979
34.151,34.938
34.211,34.894
34.285,34.848
34.375,34.8
34.481,34.751
34.601,34.703
34.735,34.656
34.881,34.611
35.037,34.567
35.201,34.524
35.371,34.482
35.542,34.442
35.713,34.402
35.881,34.364
36.044,34.327
36.199,34.29
36.345,34.254
36.48,34.219
36.605,34.185
36.718,34.153
36.82,34.123
36.909,34.095
36.987,34.066
37.052,34.038
37.105,34.008
37.145,33.978
37.172,33.947
37.187,33.916
37.19,33.884
37.182,33.852
37.164,33.819
37.137,33.786
37.101,33.753
37.059,33.722
37.011,33.693
36.958,33.667
36.902,33.645
36.844,33.63
36.784,33.624
36.725,33.629
36.667,33.649
36.611,33.686
36.558,33.742
36.509,33.82
36.463,33.919
36.422,34.043
36.385,34.189
36.352,34.358
36.322,34.547
36.293,34.755
36.265,34.979
36.236,35.214
36.207,35.456
36.175,35.699
36.141,35.94
36.104,36.173
36.065,36.396
36.022,36.606
35.977,36.801
35.929,36.976
35.878,37.13
35.825,37.262
35.77,37.37
35.713,37.454
35.655,37.514
35.597,37.553
35.54,37.571
35.484,37.571
35.431,37.555
35.38,37.525
35.333,37.482
35.29,37.429
35.252,37.367
35.218,37.299
35.19,37.227
35.168,37.153
35.152,37.077
35.142,36.998
35.136,36.918
35.134,36.837
35.136,36.754
35.141,36.67
35.147,36.586
35.152,36.5
35.157,36.414
35.158,36.328
35.156,36.242
35.149,36.157
35.138,36.074
35.122,35.99
35.102,35.908
35.079,35.826
35.054,35.746
35.026,35.668
34.996,35.592
34.964,35.519
34.931,35.449
34.898,35.382
34.865,35.32
34.833,35.263
34.803,35.209
34.774,35.159
34.747,35.113
34.722,35.07
34.698,35.032
34.675,34.998
34.653,34.968
34.632,34.942
34.61,34.919
34.586,34.898
34.56,34.881
34.532,34.867
34.5,34.857
34.465,34.853
34.429,34.852
34.391,34.855
34.354,34.862
34.318,34.872
34.285,34.884
34.254,34.897
34.227,34.911
34.201,34.925
34.179,34.937
34.159,34.947
34.142,34.954
34.126,34.96
34.11,34.964
34.095,34.964
34.079,34.96
34.063,34.952
34.045,34.939
34.026,34.922
34.005,34.9
33.983,34.875
33.958,34.846
33.932,34.816
33.906,34.783
33.879,34.749
33.854,34.714
33.83,34.679
33.807,34.642
33.786,34.603
33.766,34.562
33.747,34.518
33.729,34.473
33.711,34.425
33.693,34.374
33.676,34.32
33.66,34.265
33.644,34.209
33.627,34.152
33.611,34.097
33.593,34.043
33.574,33.994
33.554,33.948
33.534,33.909
33.514,33.874
33.495,33.846
33.479,33.823
33.468,33.805
33.463,33.791
33.466,33.78
33.48,33.774
33.507,33.769
33.549,33.767
33.607,33.764
33.681,33.761
33.773,33.756
33.88,33.749
34.002,33.742
34.137,33.734
34.285,33.725
34.441,33.715
34.605,33.703
34.774,33.688
34.944,33.671
35.114,33.653
35.28,33.632
35.439,33.608
35.59,33.58
35.731,33.549
35.862,33.515
35.982,33.479
36.09,33.44
36.185,33.399
36.27,33.357
36.343,33.313
36.405,33.268
36.457,33.225
36.498,33.186
36.529,33.154
36.55,33.13
36.562,33.118
36.564,33.12
36.558,33.14
36.544,33.179
36.524,33.24
36.5,33.326
36.474,33.435
36.445,33.569
36.416,33.725
36.387,33.902
36.357,34.098
36.328,34.31
36.298,34.534
36.267,34.766
36.235,35.001
36.202,35.234
36.168,35.461
36.131,35.677
36.09,35.88
36.044,36.066
35.994,36.234
35.94,36.382
35.882,36.511
35.821,36.621
35.759,36.711
35.697,36.78
35.636,36.83
35.577,36.862
35.523,36.879
35.473,36.881
35.428,36.869
35.389,36.846
35.354,36.811
35.322,36.766
35.292,36.713
35.263,36.652
35.235,36.585
35.207,36.511
35.18,36.434
35.153,36.353
35.127,36.271
35.102,36.188
35.079,36.104
35.058,36.021
35.04,35.937
35.024,35.854
35.013,35.773
35.006,35.692
35.004,35.613
35.005,35.536
35.01,35.461
35.019,35.389
35.032,35.319
35.047,35.254
35.066,35.191
35.086,35.132
35.108,35.075
35.129,35.019
35.15,34.964
35.17,34.909
35.187,34.856
35.201,34.805
35.212,34.754
35.219,34.706
35.223,34.66
35.223,34.618
35.221,34.581
35.215,34.549
35.206,34.523
35.195,34.503
35.181,34.487
35.166,34.477
35.148,34.47
35.129,34.468
35.109,34.47
35.087,34.474
35.064,34.48
35.041,34.488
35.018,34.496
34.995,34.504
34.972,34.512
34.95,34.52
34.928,34.528
34.908,34.534
34.889,34.539
34.873,34.543
34.858,34.546
34.844,34.547
34.832,34.547
34.821,34.544
34.809,34.54
34.795,34.534
34.778,34.526
34.757,34.516
34.733,34.503
34.705,34.488
34.674,34.472
34.64,34.455
34.604,34.437
34.566,34.419
34.528,34.398
34.491,34.375
34.455,34.349
34.42,34.321
34.388,34.291
34.357,34.261
34.329,34.229
34.303,34.197
34.277,34.164
34.254,34.132
34.231,34.1
34.209,34.069
34.187,34.038
34.165,34.006
34.142,33.974
34.12,33.941
34.097,33.909
34.075,33.877
34.052,33.845
34.031,33.814
34.012,33.783
33.995,33.751
33.98,33.719
33.968,33.688
33.962,33.658
33.961,33.63
33.969,33.603
33.986,33.578
34.014,33.554
34.054,33.531
34.109,33.51
34.178,33.49
34.262,33.47
34.362,33.45
34.476,33.428
34.604,33.405
34.744,33.38
34.895,33.353
35.053,33.326
35.216,33.298
35.381,33.269
35.545,33.239
35.705,33.209
35.86,33.18
36.007,33.151
36.145,33.122
36.271,33.093
36.385,33.063
36.488,33.032
36.578,33
36.657,32.968
36.724,32.936
36.779,32.908
36.822,32.884
36.855,32.865
36.876,32.855
36.887,32.855
36.888,32.87
36.88,32.9
36.864,32.949
36.841,33.017
36.813,33.106
36.783,33.216
36.75,33.346
36.718,33.496
36.687,33.664
36.658,33.846
36.632,34.04
36.608,34.242
36.586,34.449
36.565,34.659
36.544,34.869
36.522,35.075
36.499,35.275
36.474,35.466
36.445,35.647
36.413,35.813
36.376,35.964
36.335,36.098
36.288,36.213
36.236,36.31
36.18,36.388
36.118,36.448
36.053,36.49
35.985,36.515
35.915,36.523
35.845,36.518
35.776,36.5
35.709,36.471
35.645,36.434
35.586,36.388
35.533,36.337
35.487,36.281
35.447,36.221
35.415,36.159
35.389,36.094
35.369,36.026
35.356,35.958
35.347,35.888
35.342,35.817
35.341,35.747
35.34,35.678
35.341,35.61
35.342,35.545
35.343,35.481
35.342,35.42
35.34,35.361
35.337,35.303
35.332,35.246
35.327,35.19
35.321,35.135
35.315,35.08
35.31,35.027
35.305,34.977
35.3,34.928
35.296,34.881
35.291,34.836
35.286,34.791
35.281,34.749
35.275,34.709
35.269,34.672
35.263,34.638
35.255,34.606
35.248,34.578
35.24,34.553
35.232,34.532
35.225,34.514
35.217,34.5
35.209,34.489
35.201,34.481
35.192,34.474
35.182,34.47
35.17,34.468
35.156,34.469
35.141,34.472
35.123,34.478
35.104,34.485
35.083,34.492
35.06,34.499
35.035,34.507
35.009,34.515
34.98,34.523
34.95,34.53
34.917,34.538
34.884,34.544
34.849,34.55
34.814,34.555
34.779,34.558
34.745,34.558
34.713,34.555
34.683,34.549
34.653,34.54
34.626,34.528
34.6,34.513
34.576,34.498
34.553,34.48
34.531,34.462
34.51,34.443
34.489,34.424
34.469,34.402
34.45,34.379
34.429,34.354
34.408,34.326
34.386,34.298
34.363,34.269
34.34,34.241
34.316,34.213
34.293,34.185
34.27,34.156
34.248,34.127
34.227,34.098
34.209,34.068
34.192,34.039
34.177,34.01
34.165,33.981
34.153,33.951
34.144,33.923
34.136,33.895
34.13,33.869
34.128,33.844
34.131,33.819
34.14,33.793
34.158,33.768
34.187,33.742
34.228,33.718
34.284,33.694
34.355,33.672
34.443,33.651
34.547,33.631
34.666,33.609
34.801,33.588
34.949,33.567
35.107,33.545
35.273,33.523
35.446,33.499
35.622,33.474
35.798,33.448
35.972,33.422
36.142,33.395
36.305,33.367
36.46,33.338
36.606,33.307
36.741,33.275
36.865,33.242
36.976,33.209
37.073,33.177
37.158,33.147
37.229,33.119
37.286,33.095
37.331,33.078
37.363,33.069
37.384,33.072
37.394,33.089
37.394,33.121
37.386,33.169
37.37,33.235
37.347,33.319
37.318,33.423
37.283,33.545
37.245,33.686
37.204,33.844
37.162,34.016
37.12,34.199
37.078,34.39
37.037,34.587
36.997,34.787
36.958,34.987
36.919,35.184
36.879,35.375
36.836,35.557
36.791,35.728
36.743,35.885
36.692,36.028
36.636,36.154
36.577,36.265
36.515,36.361
36.45,36.441
36.384,36.506
36.318,36.555
36.254,36.589
36.192,36.608
36.134,36.614
36.079,36.608
36.029,36.591
35.982,36.566
35.94,36.532
35.902,36.492
35.868,36.446
35.836,36.396
35.806,36.34
35.777,36.281
35.75,36.218
35.722,36.154
35.694,36.089
35.666,36.025
35.637,35.961
35.608,35.896
35.579,35.833
35.551,35.769
35.525,35.707
35.502,35.645
35.481,35.583
35.465,35.519
35.454,35.455
35.448,35.392
35.447,35.331
35.452,35.272
35.462,35.217
35.477,35.165
35.495,35.115
35.515,35.069
35.537,35.026
35.557,34.987
35.574,34.952
35.588,34.92
35.595,34.892
35.597,34.868
35.591,34.846
35.576,34.828
35.553,34.813
35.522,34.802
35.485,34.793
35.441,34.787
35.391,34.784
35.339,34.783
35.284,34.784
35.229,34.788
35.175,34.794
35.123,34.801
35.074,34.81
35.029,34.821
34.988,34.833
34.951,34.845
34.918,34.855
34.888,34.865
34.861,34.873
34.836,34.881
34.812,34.887
34.788,34.891
34.765,34.892
34.742,34.889
34.718,34.881
34.694,34.871
34.668,34.86
34.641,34.847
34.613,34.834
34.583,34.821
34.551,34.808
34.519,34.796
34.487,34.785
34.455,34.775
34.424,34.765
34.396,34.756
34.371,34.747
34.349,34.735
34.332,34.722
34.32,34.708
34.311,34.693
34.305,34.675
34.301,34.655
34.297,34.632
34.29,34.606
34.281,34.578
34.268,34.549
34.25,34.518
34.227,34.487
34.199,34.455
34.166,34.423
34.128,34.392
34.088,34.36
34.046,34.327
34.004,34.294
33.963,34.26
33.927,34.228
33.897,34.196
33.875,34.166
33.863,34.137
33.862,34.108
33.873,34.08
33.899,34.052
33.94,34.024
33.997,33.997
34.07,33.97
34.16,33.943
34.266,33.917
34.387,33.892
34.522,33.869
34.667,33.849
34.822,33.83
34.984,33.813
35.15,33.796
35.318,33.778
35.485,33.76
35.647,33.742
35.805,33.725
35.955,33.708
36.098,33.692
36.233,33.674
36.361,33.655
36.481,33.634
36.593,33.612
36.697,33.588
36.795,33.562
36.885,33.535
36.967,33.508
37.041,33.483
37.106,33.464
37.163,33.452
37.209,33.452
37.243,33.465
37.266,33.495
37.276,33.543
37.275,33.61
37.263,33.698
37.241,33.808
37.212,33.941
37.177,34.094
37.137,34.266
37.094,34.454
37.049,34.656
37.002,34.868
36.954,35.084
36.905,35.302
36.855,35.517
36.805,35.728
36.755,35.932
36.705,36.125
36.654,36.305
36.602,36.469
36.548,36.616
36.492,36.744
36.432,36.853
36.369,36.944
36.303,37.017
36.235,37.073
36.166,37.111
36.096,37.134
36.027,37.142
35.959,37.136
35.893,37.117
35.83,37.088
35.77,37.048
35.715,36.999
35.666,36.945
35.622,36.885
35.585,36.821
35.553,36.754
35.524,36.686
35.499,36.619
35.476,36.554
35.455,36.49
35.435,36.43
35.415,36.371
35.394,36.316
35.372,36.262
35.351,36.211
35.329,36.161
35.307,36.11
35.286,36.058
35.266,36.003
35.246,35.947
35.227,35.89
35.209,35.831
35.191,35.773
35.173,35.715
35.154,35.657
35.134,35.6
35.112,35.543
35.09,35.487
35.066,35.434
35.041,35.382
35.015,35.333
34.988,35.286
34.959,35.242
34.93,35.202
34.901,35.164
34.872,35.13
34.844,35.1
34.818,35.074
34.792,35.053
34.767,35.039
34.742,35.03
34.718,35.026
34.692,35.027
34.667,35.031
34.641,35.039
34.615,35.049
34.588,35.059
34.56,35.069
34.531,35.078
34.502,35.085
34.472,35.091
34.441,35.097
34.41,35.102
34.379,35.106
34.348,35.11
34.318,35.111
34.289,35.111
34.262,35.111
34.237,35.109
34.214,35.108
34.194,35.106
34.178,35.103
34.165,35.099
34.156,35.095
34.149,35.092
34.146,35.088
34.145,35.084
34.144,35.078
34.145,35.07
34.144,35.06
34.142,35.047
34.137,35.032
34.128,35.013
34.114,34.991
34.093,34.966
34.067,34.937
34.035,34.906
33.998,34.874
33.959,34.841
33.919,34.808
33.879,34.776
33.841,34.745
33.808,34.716
33.778,34.688
33.752,34.661
33.731,34.633
33.714,34.605
33.7,34.577
33.689,34.549
33.679,34.52
33.671,34.491
33.664,34.46
33.66,34.426
33.658,34.389
33.662,34.349
33.673,34.308
33.691,34.266
33.72,34.223
33.762,34.178
33.817,34.133
33.887,34.089
33.974,34.047
34.076,34.009
34.195,33.974
34.328,33.943
34.474,33.915
34.631,33.89
34.797,33.866
34.968,33.846
35.143,33.828
35.317,33.812
35.489,33.798
35.656,33.783
35.814,33.766
35.963,33.75
36.1,33.733
36.224,33.718
36.333,33.706
36.427,33.701
36.506,33.704
36.571,33.717
36.622,33.745
36.662,33.788
36.691,33.849
36.713,33.927
36.727,34.024
36.736,34.138
36.741,34.269
36.743,34.417
36.743,34.581
36.74,34.76
36.735,34.951
36.728,35.15
36.719,35.355
36.705,35.562
36.687,35.768
36.665,35.971
36.638,36.167
36.607,36.356
36.571,36.534
36.533,36.7
36.492,36.853
36.449,36.99
36.403,37.111
36.353,37.214
36.3,37.299
36.243,37.367
36.183,37.419
36.12,37.453
36.054,37.473
35.988,37.478
35.921,37.469
35.856,37.449
35.795,37.419
35.737,37.381
35.683,37.336
35.635,37.286
35.592,37.232
35.554,37.176
35.52,37.117
35.489,37.057
35.461,36.995
35.435,36.931
35.41,36.866
35.386,36.802
35.362,36.737
35.339,36.671
35.317,36.605
35.294,36.538
35.272,36.469
35.249,36.399
35.228,36.327
35.208,36.254
35.19,36.18
35.174,36.106
35.162,36.033
35.153,35.964
35.148,35.897
35.146,35.834
35.146,35.775
35.15,35.719
35.156,35.668
35.164,35.621
35.175,35.578
35.187,35.54
35.201,35.505
35.215,35.475
35.23,35.448
35.245,35.425
35.258,35.406
35.27,35.388
35.279,35.373
35.284,35.359
35.285,35.348
35.28,35.34
35.271,35.335
35.258,35.333
35.24,35.332
35.219,35.333
35.193,35.335
35.164,35.338
35.132,35.341
35.099,35.344
35.065,35.346
35.031,35.346
34.997,35.344
34.965,35.341
34.934,35.337
34.905,35.33
34.879,35.321
34.856,35.309
34.836,35.294
34.819,35.276
34.806,35.257
34.795,35.237
34.786,35.216
34.778,35.196
34.77,35.175
34.761,35.154
34.749,35.132
34.734,35.11
34.714,35.087
34.691,35.064
34.663,35.04
34.63,35.015
34.594,34.988
34.555,34.961
34.515,34.933
34.474,34.904
34.434,34.873
34.395,34.842
34.358,34.81
34.323,34.777
34.292,34.744
34.264,34.712
34.238,34.679
34.214,34.647
34.193,34.616
34.174,34.586
34.156,34.558
34.139,34.53
34.123,34.502
34.106,34.471
34.089,34.439
34.073,34.406
34.056,34.373
34.04,34.342
34.025,34.312
34.011,34.283
33.999,34.257
33.99,34.233
33.985,34.212
33.984,34.193
33.988,34.175
33.999,34.159
34.017,34.142
34.044,34.125
34.082,34.106
34.13,34.086
34.192,34.066
34.268,34.045
34.357,34.023
34.461,33.999
34.578,33.972
34.708,33.942
34.848,33.91
34.996,33.877
35.15,33.842
35.308,33.806
35.466,33.771
35.623,33.739
35.776,33.711
35.923,33.69
36.062,33.679
36.194,33.679
36.316,33.694
36.429,33.725
36.532,33.774
36.624,33.844
36.707,33.935
36.778,34.05
36.838,34.186
36.887,34.343
36.924,34.519
36.949,34.71
36.961,34.915
36.962,35.129
36.95,35.35
36.927,35.572
36.893,35.795
36.849,36.013
36.796,36.224
36.736,36.425
36.671,36.614
36.602,36.786
36.531,36.943
36.461,37.082
36.391,37.205
36.324,37.311
36.262,37.4
36.205,37.473
36.154,37.53
36.108,37.572
36.067,37.6
36.029,37.615
35.994,37.617
35.961,37.609
35.928,37.591
35.896,37.565
35.864,37.531
35.831,37.489
35.799,37.441
35.766,37.388
35.735,37.331
35.704,37.272
35.674,37.211
35.644,37.151
35.613,37.09
35.581,37.029
35.548,36.97
35.514,36.91
35.478,36.852
35.442,36.793
35.407,36.733
35.373,36.672
35.341,36.611
35.312,36.549
35.286,36.487
35.264,36.426
35.247,36.365
35.232,36.305
35.222,36.246
35.214,36.189
35.207,36.134
35.202,36.082
35.197,36.032
35.193,35.985
35.188,35.942
35.182,35.902
35.176,35.866
35.17,35.832
35.166,35.801
35.163,35.773
35.163,35.748
35.166,35.726
35.173,35.709
35.182,35.695
35.194,35.684
35.208,35.676
35.223,35.671
35.237,35.668
35.249,35.668
35.256,35.669
35.258,35.671
35.255,35.673
35.247,35.674
35.234,35.676
35.217,35.677
35.198,35.678
35.177,35.676
35.156,35.674
35.134,35.669
35.113,35.664
35.093,35.658
35.073,35.65
35.054,35.642
35.035,35.632
35.017,35.623
35,35.612
34.983,35.601
34.967,35.588
34.953,35.573
34.941,35.555
34.931,35.534
34.924,35.513
34.92,35.491
34.917,35.469
34.916,35.446
34.916,35.42
34.916,35.392
34.915,35.363
34.913,35.332
34.91,35.3
34.905,35.267
34.899,35.234
34.891,35.202
34.883,35.169
34.875,35.139
34.869,35.109
34.864,35.081
34.863,35.053
34.865,35.025
34.87,34.995
34.879,34.963
34.891,34.931
34.905,34.898
34.92,34.864
34.936,34.831
34.952,34.796
34.966,34.761
34.977,34.726
34.984,34.69
34.985,34.654
34.981,34.619
34.972,34.586
34.958,34.555
34.94,34.526
34.922,34.501
34.905,34.477
34.893,34.454
34.888,34.43
34.893,34.407
34.911,34.384
34.943,34.36
34.991,34.336
35.056,34.31
35.137,34.282
35.235,34.252
35.347,34.219
35.472,34.185
35.608,34.15
35.751,34.113
35.898,34.076
36.048,34.037
36.196,33.998
36.342,33.96
36.483,33.927
36.617,33.9
36.742,33.881
36.858,33.872
36.963,33.877
37.057,33.897
37.138,33.935
37.207,33.993
37.265,34.073
37.311,34.175
37.347,34.301
37.375,34.448
37.394,34.618
37.406,34.807
37.41,35.015
37.407,35.237
37.397,35.469
37.38,35.709
37.358,35.953
37.33,36.198
37.297,36.44
37.258,36.676
37.215,36.902
37.168,37.116
37.116,37.314
37.061,37.494
37.002,37.653
36.94,37.79
36.875,37.905
36.808,37.996
36.738,38.066
36.666,38.115
36.593,38.144
36.521,38.156
36.448,38.15
36.376,38.131
36.305,38.1
36.235,38.058
36.168,38.007
36.104,37.948
36.043,37.883
35.986,37.814
35.933,37.741
35.884,37.665
35.837,37.585
35.792,37.504
35.749,37.422
35.705,37.34
35.661,37.26
35.616,37.182
35.571,37.106
35.523,37.03
35.475,36.955
35.426,36.88
35.377,36.807
35.328,36.735
35.281,36.666
35.233,36.597
35.187,36.529
35.143,36.461
35.1,36.393
35.061,36.325
35.024,36.257
34.992,36.191
34.965,36.127
34.943,36.067
34.928,36.011
34.919,35.961
34.916,35.916
34.919,35.875
34.927,35.838
34.938,35.807
34.952,35.78
34.967,35.758
34.982,35.74
34.997,35.724
35.01,35.711
35.02,35.701
35.027,35.693
35.03,35.688
35.028,35.686
35.021,35.687
35.009,35.691
34.992,35.699
34.97,35.709
34.944,35.72
34.915,35.733
34.882,35.745
34.847,35.757
34.81,35.766
34.773,35.772
34.735,35.776
34.697,35.777
34.659,35.774
34.622,35.769
34.586,35.761
34.552,35.751
34.521,35.738
34.492,35.723
34.466,35.704
34.442,35.683
34.422,35.659
34.403,35.633
34.388,35.608
34.375,35.583
34.365,35.56
34.358,35.538
34.353,35.517
34.35,35.497
34.347,35.476
34.345,35.457
34.341,35.436
34.336,35.415
34.329,35.391
34.319,35.366
34.306,35.339
34.289,35.311
34.268,35.28
34.244,35.248
34.217,35.214
34.187,35.18
34.155,35.146
34.12,35.113
34.084,35.079
34.047,35.046
34.009,35.014
33.972,34.981
33.936,34.949
33.904,34.915
33.875,34.88
33.852,34.844
33.834,34.806
33.822,34.768
33.814,34.729
33.811,34.69
33.813,34.652
33.818,34.615
33.828,34.578
33.841,34.54
33.859,34.502
33.88,34.463
33.907,34.423
33.941,34.384
33.982,34.345
34.032,34.306
34.093,34.268
34.165,34.23
34.248,34.194
34.345,34.159
34.454,34.125
34.576,34.09
34.709,34.053
34.852,34.016
35.002,33.978
35.158,33.941
35.316,33.908
35.473,33.88
35.628,33.859
35.777,33.848
35.92,33.849
36.055,33.866
36.18,33.9
36.295,33.956
36.398,34.035
36.489,34.138
36.568,34.264
36.635,34.413
36.69,34.585
36.732,34.777
36.761,34.986
36.778,35.21
36.783,35.445
36.777,35.687
36.762,35.933
36.738,36.178
36.707,36.419
36.671,36.651
36.63,36.871
36.585,37.078
36.538,37.267
36.49,37.438
36.441,37.588
36.391,37.716
36.341,37.823
36.291,37.908
36.242,37.974
36.194,38.019
36.148,38.047
36.104,38.058
36.063,38.053
36.023,38.034
35.986,38.003
35.95,37.962
35.915,37.912
35.88,37.855
35.845,37.791
35.807,37.722
35.767,37.649
35.725,37.571
35.68,37.49
35.635,37.405
35.589,37.32
35.543,37.234
35.497,37.149
35.452,37.064
35.409,36.979
35.369,36.894
35.332,36.809
35.298,36.725
35.267,36.643
35.239,36.562
35.214,36.483
35.19,36.406
35.166,36.331
35.141,36.258
35.115,36.188
35.089,36.12
35.063,36.055
35.037,35.992
35.012,35.932
34.991,35.876
34.974,35.822
34.962,35.772
34.954,35.726
34.952,35.682
34.953,35.642
34.959,35.606
34.967,35.573
34.977,35.544
34.987,35.518
34.997,35.497
35.005,35.481
35.011,35.469
35.014,35.462
35.013,35.46
35.009,35.46
35.001,35.461
34.989,35.463
34.974,35.466
34.955,35.471
34.932,35.478
34.907,35.486
34.881,35.495
34.852,35.505
34.823,35.515
34.793,35.526
34.763,35.536
34.734,35.546
34.705,35.554
34.678,35.561
34.651,35.566
34.625,35.567
34.6,35.564
34.576,35.558
34.552,35.547
34.528,35.532
34.504,35.513
34.48,35.49
34.456,35.466
34.432,35.441
34.408,35.415
34.386,35.388
34.364,35.36
34.344,35.332
34.324,35.305
34.307,35.277
34.29,35.248
34.276,35.219
34.263,35.189
34.252,35.159
34.244,35.129
34.236,35.099
34.231,35.07
34.226,35.039
34.221,35.007
34.217,34.972
34.214,34.937
34.211,34.9
34.208,34.863
34.205,34.826
34.202,34.789
34.199,34.752
34.195,34.715
34.189,34.679
34.181,34.642
34.171,34.606
34.157,34.569
34.14,34.532
34.119,34.495
34.095,34.458
34.067,34.42
34.036,34.379
34.002,34.337
33.967,34.294
33.933,34.25
33.9,34.206
33.87,34.163
33.844,34.122
33.824,34.084
33.812,34.048
33.81,34.015
33.819,33.985
33.841,33.957
33.877,33.931
33.926,33.907
33.988,33.884
34.063,33.86
34.15,33.837
34.247,33.815
34.354,33.793
34.47,33.773
34.593,33.756
34.722,33.743
34.854,33.738
34.989,33.741
35.125,33.758
35.26,33.79
35.392,33.84
35.521,33.912
35.644,34.006
35.762,34.124
35.872,34.268
35.975,34.437
36.069,34.629
36.154,34.841
36.228,35.069
36.292,35.311
36.347,35.563
36.393,35.822
36.431,36.084
36.462,36.346
36.487,36.603
36.504,36.851
36.513,37.086
36.516,37.306
36.511,37.508
36.499,37.692
36.48,37.856
36.454,37.999
36.423,38.123
36.387,38.226
36.346,38.308
36.302,38.37
36.254,38.412
36.204,38.434
36.151,38.439
36.097,38.428
36.042,38.403
35.986,38.364
35.929,38.313
35.872,38.253
35.815,38.185
35.757,38.113
35.701,38.037
35.645,37.959
35.59,37.882
35.539,37.807
35.49,37.735
35.444,37.666
35.401,37.598
35.361,37.531
35.324,37.464
35.29,37.397
35.258,37.329
35.227,37.258
35.197,37.186
35.167,37.11
35.136,37.032
35.103,36.952
35.07,36.871
35.035,36.791
34.999,36.711
34.963,36.633
34.927,36.558
34.891,36.487
34.855,36.42
34.82,36.356
34.787,36.294
34.756,36.235
34.727,36.178
34.7,36.124
34.676,36.072
34.653,36.024
34.632,35.98
34.615,35.94
34.6,35.905
34.588,35.876
34.578,35.851
34.571,35.831
34.566,35.816
34.563,35.804
34.562,35.796
34.562,35.793
34.564,35.792
34.567,35.795
34.57,35.798
34.572,35.802
34.573,35.804
34.572,35.805
34.567,35.804
34.557,35.801
34.542,35.797
34.522,35.792
34.496,35.785
34.464,35.776
34.427,35.766
34.386,35.753
34.342,35.739
34.296,35.723
34.25,35.705
34.203,35.687
34.157,35.668
34.112,35.65
34.069,35.633
34.027,35.617
33.988,35.602
33.951,35.588
33.917,35.575
33.885,35.56
33.855,35.545
33.828,35.527
33.802,35.507
33.777,35.485
33.753,35.462
33.729,35.436
33.706,35.408
33.683,35.378
33.66,35.343
33.638,35.305
33.616,35.263
33.597,35.219
33.58,35.173
33.566,35.125
33.556,35.076
33.549,35.026
33.545,34.975
33.544,34.926
33.545,34.878
33.547,34.832
33.549,34.787
33.55,34.744
33.548,34.703
33.544,34.664
33.536,34.627
33.525,34.592
33.511,34.559
33.494,34.527
33.475,34.494
33.454,34.461
33.434,34.426
33.413,34.391
33.393,34.355
33.374,34.32
33.355,34.284
33.338,34.249
33.321,34.214
33.305,34.179
33.292,34.144
33.28,34.107
33.271,34.068
33.265,34.029
33.263,33.989
33.264,33.949
33.27,33.909
33.28,33.871
33.297,33.832
33.32,33.794
33.351,33.756
33.392,33.72
33.443,33.686
33.507,33.655
33.583,33.63
33.673,33.612
33.776,33.604
33.891,33.609
34.018,33.631
34.155,33.673
34.299,33.738
34.449,33.826
34.6,33.939
34.751,34.078
34.897,34.243
35.038,34.435
35.169,34.653
35.29,34.893
35.4,35.154
35.497,35.431
35.582,35.719
35.655,36.016
35.716,36.315
35.766,36.613
35.805,36.905
35.835,37.186
35.856,37.454
35.868,37.703
35.874,37.93
35.874,38.132
35.869,38.308
35.861,38.458
35.85,38.581
35.839,38.679
35.828,38.753
35.816,38.804
35.803,38.833
35.789,38.842
35.774,38.835
35.756,38.812
35.735,38.777
35.711,38.733
35.684,38.68
35.652,38.623
35.617,38.561
35.576,38.496
35.531,38.427
35.482,38.356
35.43,38.284
35.375,38.211
35.32,38.137
35.265,38.065
35.212,37.992
35.161,37.918
35.114,37.845
35.07,37.771
35.03,37.697
34.993,37.622
34.96,37.546
34.93,37.47
34.902,37.392
34.878,37.313
34.857,37.234
34.839,37.155
34.825,37.076
34.814,36.998
34.806,36.921
34.801,36.847
34.798,36.776
34.798,36.708
34.797,36.643
34.797,36.583
34.795,36.527
34.792,36.475
34.787,36.428
34.78,36.386
34.772,36.347
34.762,36.312
34.752,36.282
34.743,36.256
34.736,36.235
34.73,36.218
34.728,36.204
34.728,36.193
34.731,36.183
34.737,36.176
34.743,36.171
34.75,36.169
34.756,36.167
34.761,36.168
34.763,36.169
34.763,36.172
34.76,36.175
34.753,36.179
34.742,36.183
34.728,36.186
34.71,36.187
34.689,36.186
34.667,36.184
34.643,36.181
34.619,36.175
34.596,36.168
34.573,36.159
34.551,36.148
34.529,36.135
34.507,36.119
34.484,36.1
34.462,36.078
34.439,36.053
34.417,36.026
34.395,35.997
34.376,35.965
34.359,35.932
34.344,35.897
34.332,35.861
34.324,35.825
34.317,35.788
34.313,35.754
34.311,35.722
34.311,35.693
34.311,35.668
34.312,35.646
34.313,35.626
34.313,35.608
34.311,35.59
34.309,35.571
34.307,35.549
34.304,35.524
34.301,35.496
34.298,35.465
34.294,35.431
34.291,35.394
34.287,35.352
34.284,35.307
34.279,35.259
34.272,35.207
34.263,35.154
34.25,35.098
34.234,35.042
34.215,34.986
34.191,34.932
34.164,34.882
34.134,34.835
34.102,34.793
34.069,34.753
34.036,34.715
34.004,34.678
33.975,34.642
33.95,34.606
33.929,34.57
33.912,34.533
33.901,34.493
33.894,34.451
33.892,34.406
33.895,34.359
33.904,34.309
33.918,34.257
33.939,34.205
33.968,34.153
34.008,34.104
34.06,34.059
34.126,34.023
34.208,33.997
34.305,33.985
34.418,33.99
34.546,34.015
34.686,34.062
34.838,34.132
34.998,34.228
35.162,34.348
35.328,34.492
35.493,34.66
35.652,34.851
35.804,35.064
35.946,35.297
36.076,35.547
36.193,35.809
36.295,36.081
36.383,36.357
36.456,36.633
36.516,36.907
36.564,37.175
36.601,37.433
36.627,37.677
36.644,37.906
36.653,38.114
36.655,38.301
36.65,38.462
36.64,38.6
36.624,38.713
36.603,38.803
36.578,38.871
36.549,38.917
36.516,38.943
36.479,38.949
36.441,38.939
36.401,38.912
36.361,38.871
36.322,38.818
36.284,38.756
36.248,38.687
36.214,38.612
36.18,38.533
36.148,38.45
36.115,38.363
36.081,38.273
36.045,38.181
36.007,38.089
35.967,37.998
35.923,37.906
35.876,37.813
35.826,37.721
35.771,37.627
35.714,37.534
35.654,37.44
35.592,37.345
35.53,37.252
35.468,37.159
35.409,37.067
35.352,36.977
35.3,36.889
35.251,36.801
35.206,36.715
35.166,36.631
35.13,36.549
35.098,36.471
35.07,36.395
35.044,36.322
35.02,36.252
34.998,36.186
34.977,36.125
34.958,36.07
34.94,36.02
34.922,35.975
34.906,35.935
34.89,35.9
34.875,35.87
34.86,35.845
34.845,35.825
34.83,35.811
34.815,35.801
34.802,35.795
34.789,35.793
34.778,35.794
34.768,35.796
34.759,35.8
34.753,35.805
34.747,35.811
34.744,35.817
34.741,35.824
34.74,35.829
34.739,35.833
34.739,35.834
34.74,35.831
34.74,35.827
34.741,35.82
34.74,35.812
34.738,35.801
34.733,35.788
34.726,35.773
34.715,35.754
34.701,35.733
34.684,35.709
34.663,35.682
34.638,35.651
34.61,35.618
34.58,35.582
34.547,35.545
34.511,35.508
34.474,35.472
34.436,35.435
34.398,35.4
34.361,35.365
34.325,35.331
34.293,35.296
34.264,35.26
34.24,35.222
34.22,35.183
34.204,35.142
34.193,35.101
34.185,35.059
34.18,35.014
34.177,34.968
34.176,34.919
34.175,34.867
34.173,34.815
34.169,34.762
34.162,34.709
34.153,34.656
34.14,34.603
34.123,34.55
34.102,34.498
34.077,34.447
34.051,34.397
34.022,34.349
33.993,34.302
33.964,34.257
33.937,34.214
33.912,34.173
33.89,34.134
33.871,34.097
33.856,34.063
33.844,34.029
33.836,33.995
33.83,33.961
33.826,33.926
33.823,33.89
33.82,33.853
33.815,33.815
33.809,33.776
33.8,33.735
33.789,33.693
33.777,33.651
33.763,33.608
33.75,33.566
33.738,33.525
33.728,33.486
33.721,33.452
33.72,33.424
33.727,33.404
33.743,33.397
33.77,33.406
33.81,33.432
33.866,33.479
33.936,33.549
34.023,33.643
34.127,33.763
34.245,33.909
34.378,34.08
34.524,34.275
34.681,34.494
34.845,34.734
35.013,34.992
35.182,35.264
35.348,35.545
35.51,35.831
35.665,36.118
35.812,36.402
35.949,36.679
36.076,36.946
36.192,37.199
36.298,37.436
36.394,37.655
36.481,37.854
36.558,38.031
36.627,38.186
36.687,38.318
36.737,38.428
36.779,38.516
36.812,38.583
36.836,38.629
36.851,38.655
36.856,38.663
36.851,38.655
36.837,38.633
36.816,38.6
36.787,38.557
36.753,38.505
36.716,38.444
36.675,38.377
36.632,38.304
36.589,38.226
36.545,38.145
36.501,38.062
36.459,37.979
36.419,37.897
36.382,37.817
36.348,37.738
36.317,37.662
36.289,37.586
36.264,37.512
36.24,37.44
36.218,37.369
36.196,37.299
36.175,37.229
36.153,37.16
36.13,37.091
36.105,37.024
36.078,36.958
36.049,36.894
36.016,36.83
35.982,36.77
35.945,36.712
35.906,36.657
35.866,36.605
35.826,36.557
35.787,36.512
35.749,36.47
35.713,36.432
35.678,36.396
35.645,36.365
35.613,36.336
35.583,36.312
35.556,36.29
35.531,36.27
35.509,36.254
35.49,36.241
35.474,36.23
35.46,36.222
35.449,36.216
35.44,36.214
35.431,36.216
35.424,36.221
35.418,36.23
35.412,36.241
35.407,36.255
35.403,36.269
35.4,36.283
35.397,36.294
35.396,36.303
35.395,36.308
35.395,36.31
35.396,36.311
35.397,36.31
35.398,36.307
35.397,36.303
35.396,36.296
35.391,36.288
35.385,36.277
35.376,36.264
35.365,36.249
35.351,36.232
35.334,36.213
35.315,36.191
35.294,36.166
35.271,36.138
35.247,36.107
35.224,36.072
35.201,36.035
35.18,35.994
35.159,35.951
35.139,35.907
35.12,35.863
35.1,35.818
35.081,35.772
35.061,35.725
35.04,35.678
35.019,35.631
34.996,35.584
34.972,35.538
34.948,35.491
34.923,35.444
34.897,35.397
34.871,35.351
34.846,35.305
34.82,35.258
34.796,35.211
34.773,35.164
34.75,35.117
34.728,35.069
34.708,35.023
34.688,34.977
34.669,34.931
34.652,34.884
34.635,34.837
34.619,34.789
34.606,34.741
34.593,34.692
34.581,34.643
34.57,34.592
34.559,34.541
34.549,34.488
34.539,34.436
34.53,34.384
34.522,34.334
34.514,34.284
34.507,34.234
34.499,34.184
34.492,34.134
34.484,34.085
34.475,34.036
34.465,33.99
34.454,33.946
34.441,33.905
34.427,33.868
34.411,33.838
34.394,33.815
34.374,33.802
34.352,33.802
34.33,33.816
34.307,33.847
34.285,33.896
34.266,33.967
34.253,34.061
34.247,34.18
34.25,34.325
34.266,34.495
34.297,34.69
34.345,34.909
34.411,35.147
34.497,35.403
34.603,35.674
34.727,35.956
34.866,36.246
35.019,36.54
35.181,36.835
35.35,37.125
35.523,37.406
35.696,37.675
35.866,37.928
36.032,38.163
36.191,38.378
36.341,38.57
36.48,38.739
36.607,38.883
36.721,39.003
36.821,39.098
36.906,39.169
36.977,39.218
37.035,39.246
37.08,39.254
37.113,39.245
37.135,39.221
37.148,39.182
37.152,39.129
37.149,39.065
37.138,38.992
37.122,38.911
37.101,38.826
37.077,38.737
37.049,38.645
37.02,38.552
36.99,38.458
36.959,38.364
36.929,38.27
36.899,38.175
36.871,38.08
36.843,37.985
36.816,37.89
36.791,37.796
36.765,37.701
36.74,37.606
36.714,37.511
36.686,37.415
36.657,37.319
36.624,37.225
36.589,37.132
36.551,37.042
36.511,36.956
36.467,36.874
36.422,36.797
36.375,36.724
36.326,36.655
36.277,36.59
36.227,36.529
36.176,36.475
36.126,36.425
36.076,36.381
36.027,36.342
35.98,36.306
35.936,36.273
35.895,36.245
35.858,36.222
35.825,36.204
35.797,36.191
35.772,36.183
35.751,36.179
35.732,36.178
35.716,36.182
35.701,36.188
35.687,36.197
35.675,36.208
35.663,36.22
35.651,36.233
35.639,36.246
35.627,36.258
35.615,36.269
35.602,36.277
35.588,36.284
35.575,36.289
35.561,36.29
35.547,36.288
35.533,36.281
35.518,36.27
35.504,36.253
35.49,36.233
35.476,36.21
35.464,36.184
35.452,36.155
35.441,36.122
35.431,36.087
35.423,36.05
35.415,36.011
35.408,35.972
35.401,35.932
35.394,35.893
35.385,35.853
35.375,35.814
35.364,35.775
35.351,35.737
35.337,35.699
35.323,35.663
35.307,35.627
35.291,35.591
35.274,35.556
35.257,35.521
35.239,35.484
35.22,35.446
35.2,35.405
35.177,35.362
35.152,35.317
35.125,35.27
35.094,35.22
35.061,35.167
35.024,35.112
34.985,35.056
34.945,35.001
34.903,34.947
34.863,34.895
34.825,34.844
34.791,34.795
34.762,34.747
34.739,34.701
34.722,34.658
34.711,34.618
34.706,34.581
34.706,34.547
34.711,34.515
34.718,34.483
34.726,34.452
34.735,34.42
34.741,34.387
34.745,34.353
34.744,34.317
34.74,34.28
34.731,34.24
34.719,34.199
34.702,34.156
34.683,34.11
34.66,34.062
34.635,34.013
34.61,33.963
34.585,33.914
34.561,33.868
34.538,33.826
34.517,33.79
34.498,33.762
34.48,33.748
34.465,33.75
34.45,33.774
34.437,33.821
34.425,33.895
34.413,33.997
34.401,34.13
34.389,34.293
34.377,34.486
34.366,34.709
34.355,34.958
34.347,35.229
34.342,35.519
34.342,35.822
34.35,36.135
34.369,36.451
34.401,36.765
34.449,37.072
34.513,37.367
34.596,37.647
34.697,37.906
34.815,38.141
34.95,38.349
35.1,38.528
35.263,38.679
35.437,38.802
35.617,38.897
35.801,38.964
35.983,39.007
36.16,39.026
36.33,39.024
36.489,39.003
36.636,38.965
36.768,38.912
36.884,38.847
36.985,38.772
37.069,38.691
37.137,38.604
37.191,38.513
37.233,38.419
37.264,38.323
37.287,38.227
37.303,38.13
37.315,38.035
37.324,37.942
37.331,37.85
37.335,37.759
37.338,37.669
37.337,37.58
37.332,37.492
37.323,37.404
37.309,37.316
37.289,37.229
37.264,37.143
37.233,37.057
37.197,36.971
37.157,36.884
37.114,36.796
37.068,36.709
37.02,36.622
36.972,36.537
36.923,36.454
36.876,36.374
36.83,36.297
36.786,36.226
36.744,36.16
36.704,36.1
36.664,36.046
36.625,35.998
36.586,35.955
36.548,35.918
36.51,35.887
36.473,35.863
36.437,35.846
36.402,35.837
36.368,35.835
36.334,35.838
36.301,35.846
36.269,35.858
36.238,35.874
36.208,35.893
36.181,35.914
36.155,35.935
36.132,35.957
36.111,35.977
36.094,35.995
36.079,36.008
36.068,36.018
36.06,36.023
36.056,36.025
36.054,36.025
36.055,36.022
36.057,36.017
36.059,36.009
36.062,35.998
36.066,35.984
36.069,35.968
36.073,35.95
36.077,35.929
36.082,35.904
36.086,35.877
36.09,35.846
36.093,35.814
36.095,35.78
36.096,35.746
36.096,35.71
36.093,35.674
36.089,35.636
36.082,35.598
36.072,35.558
36.06,35.518
36.045,35.477
36.026,35.435
36.005,35.39
35.979,35.345
35.949,35.297
35.916,35.247
35.878,35.194
35.836,35.137
35.791,35.076
35.743,35.013
35.694,34.948
35.643,34.882
35.592,34.816
35.542,34.751
35.494,34.688
35.448,34.627
35.406,34.57
35.369,34.519
35.335,34.472
35.307,34.43
35.282,34.392
35.262,34.359
35.245,34.329
35.23,34.303
35.218,34.279
35.207,34.256
35.198,34.23
35.191,34.202
35.184,34.169
35.177,34.133
35.171,34.094
35.163,34.052
35.153,34.007
35.14,33.96
35.124,33.911
35.104,33.861
35.081,33.81
35.055,33.761
35.025,33.713
34.993,33.668
34.958,33.628
34.922,33.597
34.886,33.578
34.851,33.574
34.817,33.589
34.784,33.623
34.753,33.68
34.722,33.761
34.693,33.867
34.664,33.999
34.638,34.157
34.612,34.341
34.588,34.546
34.566,34.772
34.545,35.015
34.525,35.273
34.507,35.54
34.49,35.814
34.476,36.091
34.465,36.368
34.46,36.641
34.461,36.906
34.471,37.158
34.491,37.395
34.523,37.612
34.567,37.808
34.626,37.981
34.7,38.129
34.788,38.253
34.893,38.353
35.013,38.427
35.147,38.479
35.293,38.51
35.451,38.521
35.617,38.516
35.788,38.496
35.963,38.462
36.138,38.419
36.31,38.366
36.478,38.306
36.639,38.239
36.791,38.166
36.933,38.088
37.063,38.007
37.182,37.923
37.288,37.836
37.381,37.747
37.462,37.656
37.531,37.561
37.591,37.465
37.641,37.366
37.683,37.267
37.715,37.168
37.739,37.069
37.755,36.972
37.761,36.879
37.758,36.789
37.747,36.702
37.728,36.619
37.704,36.538
37.674,36.46
37.639,36.385
37.602,36.312
37.563,36.241
37.522,36.172
37.48,36.106
37.437,36.044
37.394,35.986
37.352,35.935
37.31,35.889
37.27,35.849
37.23,35.814
37.191,35.784
37.151,35.76
37.112,35.742
37.072,35.73
37.03,35.721
36.985,35.717
36.938,35.716
36.888,35.718
36.836,35.722
36.782,35.728
36.728,35.735
36.675,35.743
36.624,35.751
36.575,35.758
36.531,35.762
36.492,35.764
36.457,35.76
36.428,35.75
36.404,35.734
36.383,35.713
36.363,35.686
36.344,35.655
36.324,35.62
36.301,35.58
36.276,35.537
36.247,35.492
36.215,35.444
36.182,35.395
36.148,35.345
36.113,35.295
36.079,35.245
36.046,35.194
36.016,35.145
35.989,35.098
35.966,35.053
35.947,35.009
35.934,34.966
35.925,34.923
35.921,34.88
35.92,34.839
35.921,34.798
35.925,34.759
35.93,34.721
35.935,34.687
35.94,34.655
35.944,34.626
35.946,34.598
35.946,34.572
35.943,34.547
35.938,34.525
35.93,34.505
35.919,34.487
35.907,34.471
35.893,34.454
35.877,34.438
35.86,34.42
35.842,34.401
35.822,34.378
35.801,34.352
35.778,34.323
35.754,34.291
35.728,34.255
35.7,34.216
35.67,34.175
35.636,34.134
35.601,34.092
35.563,34.05
35.524,34.007
35.484,33.963
35.444,33.918
35.404,33.874
35.365,33.83
35.329,33.786
35.296,33.742
35.266,33.698
35.24,33.654
35.219,33.61
35.202,33.566
35.188,33.521
35.178,33.474
35.171,33.427
35.166,33.379
35.162,33.332
35.158,33.291
35.153,33.258
35.145,33.238
35.134,33.234
35.118,33.25
35.098,33.289
35.072,33.353
35.04,33.446
35.001,33.57
34.955,33.727
34.902,33.915
34.843,34.133
34.777,34.377
34.705,34.645
34.63,34.933
34.553,35.235
34.475,35.546
34.398,35.862
34.325,36.176
34.255,36.483
34.192,36.78
34.136,37.063
34.088,37.328
34.048,37.572
34.017,37.795
33.993,37.995
33.976,38.173
33.965,38.326
33.96,38.456
33.961,38.562
33.967,38.645
33.978,38.707
33.996,38.749
34.022,38.773
34.057,38.778
34.103,38.768
34.161,38.744
34.234,38.708
34.322,38.661
34.426,38.607
34.545,38.545
34.679,38.478
34.827,38.406
34.987,38.331
35.157,38.255
35.333,38.176
35.513,38.097
35.695,38.016
35.876,37.934
36.055,37.851
36.228,37.769
36.394,37.687
36.551,37.605
36.698,37.524
36.833,37.444
36.956,37.365
37.065,37.286
37.162,37.205
37.246,37.123
37.317,37.04
37.375,36.957
37.421,36.872
37.456,36.786
37.479,36.699
37.492,36.612
37.495,36.527
37.487,36.444
37.471,36.365
37.446,36.291
37.414,36.221
37.377,36.157
37.336,36.099
37.292,36.046
37.248,35.999
37.203,35.958
37.159,35.924
37.117,35.895
37.075,35.871
37.035,35.851
36.997,35.835
36.959,35.822
36.921,35.812
36.882,35.805
36.843,35.8
36.802,35.798
36.759,35.798
36.714,35.799
36.667,35.799
36.617,35.799
36.566,35.798
36.513,35.797
36.46,35.794
36.407,35.791
36.356,35.785
36.307,35.777
36.261,35.767
36.219,35.755
36.181,35.74
36.148,35.722
36.12,35.701
36.096,35.678
36.077,35.653
36.063,35.625
36.052,35.597
36.045,35.569
36.04,35.541
36.037,35.513
36.033,35.484
36.03,35.454
36.024,35.423
36.017,35.39
36.006,35.356
35.992,35.321
35.974,35.285
35.952,35.249
35.927,35.213
35.899,35.178
35.868,35.142
35.836,35.105
35.803,35.065
35.771,35.023
35.74,34.979
35.712,34.933
35.688,34.885
35.669,34.834
35.654,34.781
35.643,34.726
35.635,34.67
35.628,34.612
35.621,34.555
35.615,34.497
35.608,34.439
35.599,34.381
35.588,34.324
35.574,34.27
35.558,34.219
35.539,34.17
35.517,34.124
35.493,34.08
35.466,34.036
35.437,33.992
35.405,33.948
35.372,33.904
35.337,33.86
35.302,33.816
35.266,33.774
35.229,33.732
35.193,33.692
35.156,33.653
35.119,33.614
35.082,33.575
35.044,33.534
35.007,33.49
34.971,33.446
34.935,33.401
34.9,33.358
34.866,33.318
34.834,33.284
34.805,33.259
34.778,33.247
34.755,33.25
34.734,33.271
34.716,33.315
34.7,33.383
34.686,33.478
34.673,33.601
34.66,33.755
34.645,33.939
34.628,34.151
34.607,34.39
34.583,34.652
34.554,34.933
34.52,35.229
34.481,35.536
34.439,35.847
34.394,36.158
34.348,36.464
34.303,36.762
34.259,37.046
34.217,37.312
34.179,37.559
34.143,37.782
34.112,37.98
34.085,38.154
34.062,38.302
34.041,38.426
34.022,38.524
34.004,38.597
33.985,38.648
33.964,38.677
33.941,38.689
33.917,38.684
33.891,38.665
33.865,38.634
33.841,38.592
33.818,38.54
33.799,38.48
33.785,38.414
33.777,38.342
33.777,38.266
33.786,38.187
33.806,38.106
33.838,38.024
33.882,37.938
33.941,37.85
34.015,37.759
34.104,37.666
34.209,37.571
34.329,37.474
34.464,37.376
34.611,37.277
34.77,37.177
34.938,37.079
35.113,36.982
35.29,36.886
35.468,36.792
35.643,36.698
35.812,36.606
35.974,36.518
36.127,36.432
36.27,36.351
36.402,36.275
36.522,36.203
36.631,36.136
36.727,36.075
36.812,36.02
36.886,35.969
36.949,35.923
37.002,35.881
37.045,35.843
37.08,35.809
37.106,35.779
37.125,35.753
37.136,35.731
37.141,35.711
37.141,35.692
37.135,35.675
37.125,35.66
37.109,35.648
37.089,35.641
37.062,35.637
37.03,35.636
36.993,35.639
36.951,35.643
36.906,35.65
36.858,35.657
36.808,35.665
36.758,35.672
36.709,35.679
36.661,35.684
36.613,35.687
36.567,35.688
36.521,35.686
36.475,35.681
36.428,35.672
36.382,35.659
36.335,35.644
36.287,35.627
36.239,35.607
36.191,35.584
36.143,35.559
36.097,35.532
36.052,35.504
36.01,35.474
35.97,35.444
35.932,35.413
35.897,35.381
35.865,35.347
35.834,35.312
35.805,35.275
35.776,35.236
35.746,35.193
35.716,35.147
35.685,35.097
35.653,35.043
35.621,34.986
35.588,34.928
35.555,34.869
35.522,34.81
35.489,34.752
35.457,34.695
35.427,34.64
35.399,34.585
35.374,34.532
35.353,34.48
35.336,34.428
35.323,34.376
35.314,34.326
35.309,34.276
35.307,34.227
35.307,34.179
35.308,34.131
35.31,34.083
35.31,34.034
35.308,33.984
35.302,33.933
35.292,33.882
35.277,33.832
35.256,33.783
35.23,33.735
35.2,33.691
35.166,33.649
35.129,33.61
35.09,33.573
35.049,33.536
35.008,33.5
34.966,33.463
34.925,33.426
34.885,33.388
34.847,33.35
34.81,33.311
34.776,33.272
34.744,33.233
34.714,33.197
34.686,33.165
34.66,33.14
34.636,33.123
34.615,33.119
34.595,33.129
34.576,33.158
34.558,33.21
34.54,33.286
34.524,33.389
34.507,33.521
34.492,33.68
34.476,33.866
34.461,34.077
34.447,34.311
34.433,34.563
34.419,34.83
34.407,35.107
34.395,35.389
34.382,35.672
34.37,35.952
34.357,36.226
34.344,36.49
34.33,36.739
34.316,36.971
34.301,37.184
34.285,37.376
34.267,37.547
34.246,37.696
34.221,37.823
34.192,37.929
34.158,38.014
34.12,38.078
34.078,38.122
34.033,38.146
33.986,38.15
33.94,38.137
33.896,38.107
33.855,38.063
33.82,38.008
33.792,37.943
33.771,37.868
33.758,37.785
33.752,37.696
33.754,37.601
33.762,37.504
33.777,37.406
33.799,37.306
33.83,37.207
33.869,37.107
33.917,37.007
33.976,36.906
34.047,36.804
34.129,36.703
34.225,36.602
34.334,36.504
34.457,36.409
34.591,36.317
34.736,36.227
34.89,36.14
35.051,36.054
35.215,35.971
35.381,35.891
35.546,35.812
35.708,35.735
35.866,35.659
36.017,35.585
36.162,35.514
36.297,35.446
36.423,35.383
36.538,35.324
36.641,35.27
36.732,35.22
36.81,35.175
36.876,35.137
36.93,35.105
36.97,35.08
36.998,35.063
37.014,35.052
37.019,35.046
37.013,35.043
36.997,35.045
36.975,35.049
36.946,35.055
36.914,35.064
36.88,35.073
36.844,35.082
36.807,35.091
36.769,35.1
36.73,35.107
36.689,35.112
36.645,35.114
36.599,35.114
36.55,35.112
36.499,35.108
36.444,35.101
36.387,35.092
36.328,35.081
36.267,35.068
36.205,35.052
36.142,35.033
36.078,35.011
36.013,34.985
35.948,34.954
35.883,34.92
35.818,34.884
35.756,34.847
35.697,34.811
35.641,34.775
35.59,34.739
35.544,34.702
35.502,34.665
35.465,34.628
35.433,34.591
35.404,34.556
35.379,34.521
35.356,34.488
35.336,34.455
35.316,34.423
35.297,34.391
35.278,34.359
35.26,34.327
35.241,34.293
35.223,34.256
35.205,34.217
35.188,34.177
35.171,34.135
35.155,34.092
35.139,34.047
35.123,34
35.109,33.952
35.095,33.901
35.083,33.851
35.072,33.8
35.063,33.749
35.055,33.7
35.048,33.652
35.043,33.607
35.038,33.565
35.034,33.525
35.03,33.487
35.027,33.451
35.023,33.416
35.017,33.381
35.009,33.345
34.998,33.307
34.984,33.268
34.967,33.228
34.947,33.186
34.924,33.143
34.898,33.099
34.87,33.055
34.84,33.01
34.809,32.966
34.777,32.923
34.744,32.883
34.71,32.849
34.677,32.822
34.644,32.806
34.611,32.804
34.578,32.819
34.546,32.854
34.512,32.91
34.48,32.988
34.448,33.091
34.418,33.219
34.389,33.37
34.361,33.542
34.335,33.733
34.312,33.941
34.292,34.162
34.274,34.392
34.259,34.63
34.246,34.871
34.235,35.111
34.225,35.347
34.216,35.576
34.207,35.795
34.197,36.003
34.185,36.196
34.171,36.373
34.154,36.533
34.135,36.674
34.113,36.796
34.089,36.897
34.062,36.978
34.033,37.039
34.003,37.079
33.97,37.1
33.936,37.104
33.9,37.092
33.863,37.065
33.825,37.025
33.789,36.973
33.754,36.912
33.722,36.844
33.693,36.77
33.668,36.693
33.648,36.612
33.633,36.528
33.624,36.442
33.622,36.354
33.626,36.266
33.638,36.178
33.657,36.091
33.686,36.004
33.726,35.917
33.776,35.829
33.838,35.74
33.913,35.651
34.001,35.563
34.102,35.475
34.217,35.39
34.345,35.306
34.486,35.224
34.638,35.145
34.8,35.068
34.971,34.994
35.146,34.924
35.324,34.856
35.502,34.792
35.678,34.731
35.849,34.674
36.013,34.621
36.169,34.571
36.313,34.525
36.446,34.482
36.565,34.441
36.669,34.402
36.759,34.365
36.832,34.332
36.889,34.302
36.93,34.276
36.957,34.254
36.971,34.236
36.974,34.222
36.968,34.211
36.954,34.203
36.935,34.196
36.913,34.192
36.889,34.188
36.865,34.186
36.84,34.185
36.817,34.186
36.794,34.188
36.772,34.191
36.751,34.195
36.73,34.198
36.707,34.201
36.683,34.202
36.655,34.201
36.625,34.197
36.59,34.19
36.551,34.179
36.507,34.167
36.458,34.154
36.403,34.139
36.344,34.123
36.28,34.106
36.212,34.086
36.141,34.066
36.071,34.047
36.001,34.028
35.934,34.008
35.871,33.987
35.815,33.962
35.765,33.934
35.722,33.903
35.686,33.867
35.656,33.828
35.632,33.785
35.611,33.739
35.594,33.691
35.578,33.643
35.562,33.594
35.546,33.546
35.529,33.498
35.511,33.451
35.491,33.404
35.47,33.358
35.447,33.312
35.422,33.266
35.398,33.22
35.374,33.175
35.351,33.132
35.33,33.089
35.311,33.047
35.294,33.007
35.28,32.968
35.269,32.931
35.262,32.896
35.259,32.861
35.258,32.827
35.259,32.792
35.261,32.758
35.263,32.724
35.265,32.69
35.265,32.656
35.264,32.623
35.26,32.59
35.252,32.558
35.241,32.527
35.227,32.496
35.208,32.465
35.187,32.433
35.163,32.399
35.138,32.365
35.111,32.331
35.083,32.298
35.056,32.267
35.029,32.242
35.002,32.225
34.976,32.217
34.949,32.221
34.922,32.241
34.894,32.277
34.864,32.332
34.832,32.406
34.797,32.499
34.759,32.611
34.719,32.741
34.678,32.889
34.635,33.053
34.592,33.231
34.551,33.42
34.513,33.618
34.478,33.822
34.447,34.028
34.421,34.232
34.399,34.43
34.382,34.621
34.369,34.802
34.36,34.971
34.353,35.126
34.348,35.266
34.345,35.388
34.342,35.491
34.34,35.575
34.335,35.641
34.327,35.689
34.315,35.721
34.298,35.738
34.273,35.743
34.242,35.736
34.203,35.719
34.158,35.693
34.106,35.66
34.05,35.621
33.99,35.574
33.928,35.522
33.865,35.464
33.803,35.402
33.743,35.337
33.686,35.271
33.635,35.205
33.59,35.139
33.552,35.074
33.522,35.01
33.501,34.947
33.488,34.884
33.484,34.823
33.489,34.762
33.504,34.702
33.528,34.644
33.564,34.587
33.612,34.53
33.674,34.472
33.752,34.413
33.844,34.352
33.952,34.29
34.075,34.228
34.212,34.166
34.363,34.106
34.527,34.047
34.702,33.991
34.885,33.938
35.075,33.89
35.267,33.845
35.458,33.805
35.646,33.768
35.828,33.732
35.999,33.697
36.159,33.663
36.305,33.631
36.436,33.602
36.552,33.577
36.653,33.555
36.738,33.536
36.807,33.52
36.86,33.507
36.898,33.496
36.922,33.487
36.932,33.48
36.931,33.473
36.919,33.466
36.898,33.458
36.869,33.45
36.833,33.441
36.793,33.432
36.75,33.423
36.704,33.413
36.658,33.402
36.614,33.391
36.572,33.38
36.533,33.369
36.497,33.359
36.464,33.351
36.433,33.344
36.403,33.338
36.372,33.335
36.34,33.335
36.306,33.338
36.271,33.342
36.233,33.348
36.193,33.355
36.149,33.363
36.102,33.371
36.052,33.379
35.998,33.388
35.941,33.396
35.883,33.403
35.823,33.406
35.764,33.406
35.705,33.401
35.647,33.39
35.592,33.374
35.54,33.352
35.491,33.324
35.448,33.291
35.41,33.252
35.378,33.209
35.353,33.164
35.334,33.117
35.32,33.068
35.31,33.019
35.303,32.968
35.297,32.916
35.292,32.865
35.286,32.815
35.279,32.768
35.27,32.723
35.26,32.683
35.247,32.646
35.232,32.613
35.216,32.584
35.199,32.559
35.18,32.536
35.16,32.514
35.139,32.492
35.117,32.469
35.096,32.444
35.074,32.419
35.053,32.392
35.033,32.365
35.014,32.338
34.998,32.31
34.984,32.282
34.972,32.254
34.962,32.226
34.953,32.198
34.945,32.171
34.938,32.144
34.929,32.117
34.919,32.091
34.907,32.07
34.893,32.054
34.877,32.046
34.857,32.049
34.834,32.062
34.807,32.087
34.776,32.124
34.742,32.175
34.705,32.241
34.664,32.322
34.621,32.419
34.576,32.531
34.528,32.657
34.479,32.795
34.429,32.946
34.379,33.106
34.328,33.274
34.277,33.446
34.228,33.619
34.181,33.79
34.136,33.956
34.093,34.116
34.054,34.266
34.017,34.406
33.983,34.534
33.953,34.65
33.926,34.752
33.902,34.841
33.881,34.915
33.861,34.974
33.843,35.017
33.825,35.046
33.806,35.062
33.786,35.067
33.765,35.063
33.744,35.051
33.722,35.033
33.699,35.009
33.676,34.981
33.653,34.95
33.629,34.918
33.605,34.884
33.579,34.849
33.551,34.812
33.52,34.774
33.486,34.735
33.449,34.695
33.409,34.653
33.367,34.609
33.323,34.563
33.279,34.514
33.236,34.463
33.195,34.411
33.155,34.358
33.119,34.305
33.087,34.252
33.061,34.199
33.041,34.146
33.03,34.093
33.029,34.041
33.039,33.99
33.063,33.941
33.102,33.893
33.157,33.848
33.23,33.806
33.32,33.768
33.427,33.733
33.551,33.701
33.689,33.673
33.841,33.647
34.002,33.622
34.172,33.599
34.348,33.578
34.526,33.559
34.705,33.541
34.882,33.524
35.055,33.51
35.222,33.498
35.382,33.49
35.532,33.484
35.672,33.48
35.8,33.478
35.916,33.477
36.019,33.477
36.108,33.48
36.183,33.484
36.244,33.49
36.291,33.496
36.325,33.502
36.347,33.508
36.358,33.511
36.359,33.512
36.35,33.51
36.335,33.504
36.312,33.494
36.283,33.48
36.25,33.464
36.214,33.447
36.176,33.43
36.138,33.413
36.099,33.397
36.06,33.381
36.022,33.367
35.985,33.353
35.949,33.341
35.914,33.33
35.881,33.32
35.847,33.311
35.813,33.303
35.776,33.295
35.737,33.287
35.694,33.28
35.646,33.272
35.593,33.263
35.537,33.251
35.477,33.237
35.414,33.219
35.351,33.199
35.286,33.177
35.223,33.154
35.162,33.129
35.104,33.1
35.051,33.069
35.004,33.036
34.962,33.002
34.926,32.966
34.895,32.929
34.868,32.891
34.845,32.853
34.825,32.815
34.807,32.78
34.79,32.747
34.774,32.718
34.76,32.692
34.747,32.67
34.734,32.65
34.722,32.632
34.71,32.614
34.698,32.598
34.685,32.583
34.67,32.568
34.655,32.552
34.64,32.534
34.626,32.516
34.613,32.496
34.601,32.476
34.591,32.456
34.583,32.435
34.578,32.411
34.576,32.385
34.575,32.356
34.575,32.326
34.576,32.295
34.577,32.266
34.576,32.238
34.573,32.214
34.568,32.195
34.559,32.181
34.546,32.176
34.528,32.182
34.506,32.198
34.48,32.227
34.451,32.269
34.419,32.324
34.387,32.394
34.353,32.479
34.32,32.579
34.288,32.692
34.257,32.815
34.227,32.946
34.199,33.083
34.173,33.223
34.148,33.365
34.124,33.507
34.101,33.648
34.079,33.784
34.058,33.914
34.037,34.036
34.016,34.15
33.995,34.255
33.974,34.35
33.952,34.435
33.93,34.508
33.908,34.57
33.886,34.621
33.865,34.66
33.847,34.688
33.831,34.704
33.817,34.71
33.806,34.706
33.797,34.693
33.789,34.671
33.781,34.643
33.774,34.608
33.766,34.568
33.757,34.526
33.748,34.481
33.737,34.437
33.725,34.392
33.712,34.345
33.695,34.298
33.676,34.248
33.654,34.197
33.628,34.146
33.598,34.095
33.564,34.045
33.527,33.995
33.486,33.944
33.443,33.894
33.399,33.843
33.356,33.793
33.314,33.744
33.276,33.696
33.242,33.649
33.214,33.603
33.192,33.558
33.179,33.514
33.176,33.474
33.183,33.437
33.202,33.404
33.232,33.372
33.276,33.341
33.332,33.311
33.401,33.281
33.484,33.251
33.581,33.222
33.69,33.194
33.81,33.167
33.94,33.142
34.078,33.118
34.221,33.097
34.367,33.078
34.514,33.06
34.659,33.044
34.801,33.028
34.938,33.012
35.07,32.998
35.196,32.985
35.315,32.975
35.428,32.968
35.533,32.965
35.632,32.964
35.722,32.966
35.805,32.969
35.879,32.974
35.944,32.981
35.998,32.987
36.041,32.993
36.074,32.999
36.097,33.004
36.109,33.008
36.111,33.013
36.103,33.018
36.087,33.021
36.063,33.024
36.032,33.023
35.997,33.021
35.957,33.015
35.915,33.008
35.87,32.999
35.824,32.988
35.778,32.975
35.731,32.961
35.684,32.946
35.638,32.93
35.592,32.913
35.545,32.895
35.498,32.877
35.449,32.857
35.4,32.837
35.348,32.817
35.296,32.797
35.243,32.777
35.19,32.758
35.137,32.741
35.085,32.724
35.034,32.707
34.985,32.692
34.938,32.676
34.893,32.661
34.852,32.647
34.815,32.634
34.783,32.622
34.757,32.61
34.736,32.599
34.719,32.588
34.706,32.576
34.696,32.563
34.689,32.549
34.682,32.535
34.677,32.519
34.671,32.504
34.664,32.488
34.656,32.471
34.646,32.455
34.634,32.44
34.621,32.424
34.607,32.409
34.593,32.392
34.58,32.375
34.568,32.357
34.557,32.337
34.548,32.317
34.541,32.295
34.536,32.274
34.533,32.252
34.531,32.231
34.531,32.211
34.531,32.194
34.532,32.179
34.532,32.169
34.531,32.165
34.529,32.168
34.525,32.18
34.518,32.203
34.507,32.238
34.493,32.286
34.475,32.348
34.454,32.424
34.429,32.511
34.401,32.609
34.371,32.715
34.339,32.828
34.306,32.946
34.272,33.067
34.237,33.188
34.203,33.309
34.17,33.428
34.138,33.544
34.109,33.655
34.082,33.761
34.057,33.86
34.035,33.95
34.014,34.031
33.996,34.1
33.979,34.16
33.964,34.21
33.949,34.254
33.935,34.29
33.92,34.319
33.904,34.342
33.888,34.359
33.871,34.371
33.854,34.38
33.838,34.387
33.823,34.391
33.809,34.392
33.795,34.391
33.783,34.386
33.77,34.378
33.756,34.367
33.742,34.354
33.725,34.34
33.708,34.325
33.689,34.309
33.67,34.291
33.65,34.273
33.629,34.254
33.607,34.234
33.585,34.214
33.563,34.194
33.54,34.174
33.518,34.155
33.497,34.134
33.476,34.113
33.455,34.09
33.436,34.066
33.419,34.041
33.403,34.016
33.392,33.993
33.385,33.97
33.384,33.948
33.391,33.928
33.406,33.909
33.43,33.892
33.465,33.877
33.512,33.863
33.571,33.851
33.643,33.841
33.728,33.833
33.824,33.827
33.932,33.824
34.051,33.824
34.178,33.828
34.312,33.833
34.453,33.839
34.598,33.845
34.747,33.85
34.897,33.854
35.046,33.857
35.193,33.86
35.335,33.863
35.471,33.865
35.597,33.866
35.713,33.867
35.817,33.869
35.908,33.871
35.984,33.874
36.045,33.877
36.092,33.88
36.125,33.882
36.145,33.885
36.152,33.887
36.148,33.89
36.135,33.892
36.114,33.893
36.086,33.893
36.052,33.892
36.014,33.889
35.972,33.886
35.928,33.881
35.881,33.874
35.833,33.867
35.783,33.857
35.733,33.847
35.681,33.836
35.629,33.826
35.578,33.816
35.526,33.807
35.475,33.798
35.425,33.789
35.376,33.781
35.328,33.772
35.281,33.763
35.235,33.753
35.19,33.742
35.145,33.728
35.1,33.712
35.056,33.694
35.014,33.675
34.974,33.653
34.938,33.629
34.904,33.604
34.874,33.578
34.846,33.553
34.821,33.529
34.8,33.506
34.78,33.485
34.762,33.466
34.744,33.449
34.725,33.435
34.706,33.423
34.686,33.414
34.664,33.405
34.642,33.397
34.617,33.39
34.592,33.384
34.567,33.38
34.542,33.376
34.519,33.373
34.496,33.368
34.474,33.361
34.454,33.351
34.436,33.339
34.42,33.324
34.406,33.308
34.394,33.289
34.383,33.269
34.375,33.247
34.368,33.226
34.363,33.205
34.359,33.187
34.357,33.172
34.357,33.161
34.357,33.156
34.357,33.159
34.358,33.172
34.358,33.197
34.357,33.235
34.354,33.287
34.349,33.352
34.341,33.428
34.331,33.516
34.318,33.614
34.303,33.72
34.286,33.833
34.267,33.952
34.246,34.075
34.224,34.199
34.201,34.324
34.176,34.447
34.15,34.568
34.122,34.685
34.093,34.795
34.063,34.9
34.031,34.997
33.999,35.086
33.965,35.165
33.931,35.235
33.897,35.295
33.863,35.345
33.83,35.385
33.797,35.416
33.767,35.437
33.738,35.45
33.712,35.455
33.688,35.453
33.666,35.445
33.647,35.431
33.631,35.414
33.618,35.392
33.608,35.366
33.6,35.336
33.594,35.303
33.589,35.266
33.585,35.227
33.581,35.186
33.577,35.144
33.571,35.102
33.564,35.059
33.554,35.016
33.541,34.972
33.524,34.927
33.504,34.882
33.481,34.837
33.456,34.793
33.429,34.752
33.4,34.712
33.372,34.674
33.345,34.638
33.321,34.605
33.299,34.575
33.28,34.549
33.265,34.526
33.252,34.505
33.244,34.485
33.24,34.466
33.241,34.448
33.249,34.431
33.264,34.414
33.288,34.397
33.322,34.379
33.368,34.36
33.427,34.34
33.5,34.32
33.587,34.3
33.689,34.283
33.806,34.267
33.937,34.253
34.081,34.241
34.235,34.232
34.396,34.225
34.563,34.221
34.731,34.22
34.898,34.221
35.06,34.223
35.215,34.227
35.359,34.233
35.491,34.24
35.609,34.249
35.712,34.259
35.801,34.27
35.874,34.281
35.935,34.291
35.982,34.3
36.017,34.31
36.041,34.318
36.054,34.327
36.057,34.335
36.052,34.342
36.038,34.349
36.019,34.355
35.993,34.359
35.964,34.361
35.932,34.36
35.898,34.357
35.864,34.352
35.828,34.345
35.793,34.336
35.759,34.325
35.725,34.313
35.691,34.299
35.657,34.286
35.622,34.271
35.585,34.256
35.546,34.24
35.505,34.22
35.461,34.198
35.415,34.175
35.366,34.15
35.316,34.126
35.265,34.103
35.214,34.08
35.165,34.058
35.117,34.037
35.071,34.017
35.025,34
34.98,33.984
34.935,33.97
34.888,33.957
34.84,33.943
34.791,33.928
34.741,33.913
34.69,33.897
34.638,33.88
34.587,33.861
34.537,33.84
34.489,33.819
34.444,33.797
34.403,33.775
34.367,33.754
34.336,33.735
34.31,33.719
34.289,33.705
34.272,33.694
34.26,33.686
34.251,33.679
34.247,33.673
34.247,33.668
34.251,33.662
34.258,33.656
34.267,33.65
34.277,33.644
34.286,33.638
34.294,33.632
34.299,33.624
34.303,33.616
34.303,33.608
34.3,33.603
34.293,33.602
34.283,33.608
34.27,33.621
34.255,33.645
34.24,33.68
34.226,33.728
34.214,33.789
34.203,33.863
34.195,33.95
34.189,34.048
34.186,34.158
34.183,34.276
34.179,34.403
34.174,34.535
34.166,34.67
34.155,34.806
34.14,34.941
34.12,35.071
34.094,35.196
34.063,35.314
34.027,35.422
33.988,35.52
33.948,35.607
33.907,35.685
33.867,35.752
33.829,35.81
33.794,35.857
33.763,35.893
33.736,35.92
33.713,35.938
33.694,35.949
33.678,35.955
33.667,35.956
33.659,35.952
33.654,35.946
33.651,35.936
33.648,35.922
33.645,35.906
33.642,35.886
33.638,35.864
33.633,35.84
33.627,35.814
33.619,35.786
33.61,35.757
33.6,35.726
33.59,35.69
33.578,35.653
33.567,35.613
33.555,35.572
33.543,35.53
33.532,35.488
33.52,35.446
33.51,35.404
33.499,35.363
33.489,35.322
33.479,35.283
33.47,35.245
33.461,35.209
33.454,35.176
33.447,35.145
33.442,35.117
33.439,35.092
33.439,35.07
33.443,35.049
33.452,35.029
33.468,35.009
33.494,34.989
33.529,34.969
33.576,34.949
33.636,34.929
33.709,34.908
33.795,34.888
33.894,34.869
34.007,34.849
34.132,34.829
34.268,34.808
34.413,34.785
34.563,34.761
34.716,34.737
34.87,34.714
35.021,34.693
35.168,34.674
35.308,34.656
35.44,34.64
35.564,34.626
35.677,34.615
35.781,34.606
35.874,34.599
35.957,34.595
36.03,34.592
36.093,34.591
36.146,34.591
36.19,34.594
36.224,34.598
36.249,34.605
36.266,34.613
36.275,34.621
36.278,34.631
36.275,34.642
36.265,34.655
36.251,34.669
36.232,34.685
36.21,34.7
36.186,34.715
36.16,34.729
36.132,34.742
36.102,34.753
36.069,34.761
36.034,34.767
35.997,34.773
35.955,34.777
35.911,34.781
35.864,34.784
35.814,34.785
35.761,34.783
35.706,34.778
35.649,34.77
35.59,34.759
35.53,34.745
35.47,34.727
35.411,34.705
35.354,34.679
35.302,34.65
35.254,34.619
35.211,34.586
35.173,34.551
35.141,34.515
35.112,34.476
35.088,34.436
35.067,34.396
35.049,34.357
35.032,34.321
35.017,34.287
35.002,34.255
34.988,34.226
34.972,34.2
34.956,34.177
34.938,34.159
34.918,34.145
34.897,34.135
34.875,34.127
34.851,34.123
34.827,34.12
34.802,34.117
34.776,34.114
34.751,34.109
34.727,34.101
34.704,34.091
34.681,34.079
34.66,34.063
34.641,34.046
34.625,34.026
34.611,34.003
34.599,33.98
34.59,33.955
34.583,33.931
34.578,33.909
34.573,33.891
34.568,33.879
34.563,33.876
34.555,33.885
34.544,33.907
34.527,33.945
34.505,33.998
34.477,34.066
34.444,34.148
34.406,34.245
34.364,34.356
34.319,34.48
34.274,34.616
34.229,34.761
34.185,34.912
34.145,35.066
34.107,35.222
34.073,35.377
34.044,35.529
34.018,35.677
33.997,35.818
33.98,35.952
33.967,36.076
33.958,36.188
33.951,36.288
33.948,36.374
33.946,36.446
33.946,36.503
33.946,36.547
33.946,36.58
33.944,36.601
33.938,36.613
33.929,36.615
33.913,36.609
33.892,36.595
33.865,36.575
33.83,36.551
33.789,36.522
33.742,36.489
33.688,36.453
33.63,36.415
33.57,36.373
33.508,36.329
33.447,36.283
33.389,36.237
33.334,36.193
33.283,36.15
33.237,36.11
33.195,36.073
33.157,36.037
33.124,36.002
33.094,35.971
33.069,35.943
33.046,35.917
33.027,35.892
33.011,35.869
32.997,35.846
32.986,35.824
32.978,35.801
32.974,35.779
32.974,35.755
32.98,35.73
32.993,35.703
33.013,35.675
33.044,35.646
33.085,35.617
33.139,35.589
33.208,35.562
33.293,35.538
33.394,35.517
33.51,35.498
33.642,35.481
33.786,35.465
33.941,35.448
34.105,35.433
34.274,35.42
34.446,35.409
34.616,35.401
34.782,35.396
34.94,35.393
35.088,35.391
35.224,35.39
35.346,35.391
35.455,35.393
35.55,35.397
35.634,35.403
35.705,35.408
35.767,35.414
35.819,35.419
35.862,35.424
35.898,35.427
35.925,35.428
35.944,35.427
35.956,35.424
35.96,35.418
35.958,35.411
35.949,35.4
35.935,35.387
35.917,35.372
35.895,35.355
35.87,35.336
35.842,35.316
35.811,35.296
35.779,35.275
35.745,35.254
35.711,35.234
35.676,35.216
35.64,35.2
35.603,35.185
35.565,35.171
35.526,35.156
35.486,35.141
35.445,35.124
35.402,35.108
35.359,35.091
35.314,35.074
35.27,35.057
35.225,35.039
35.182,35.021
35.14,35.003
35.099,34.985
35.062,34.967
35.027,34.949
34.995,34.93
34.967,34.909
34.941,34.887
34.919,34.862
34.898,34.835
34.88,34.805
34.864,34.772
34.849,34.738
34.835,34.702
34.821,34.667
34.807,34.633
34.794,34.602
34.779,34.573
34.764,34.548
34.747,34.526
34.729,34.509
34.712,34.495
34.695,34.483
34.679,34.472
34.665,34.462
34.654,34.452
34.646,34.442
34.643,34.432
34.644,34.42
34.649,34.406
34.658,34.39
34.672,34.371
34.688,34.35
34.707,34.326
34.726,34.3
34.744,34.274
34.76,34.249
34.771,34.228
34.779,34.213
34.782,34.208
34.778,34.215
34.769,34.235
34.754,34.269
34.731,34.32
34.703,34.387
34.669,34.471
34.631,34.572
34.59,34.689
34.546,34.818
34.502,34.96
34.458,35.111
34.415,35.27
34.376,35.434
34.339,35.6
34.307,35.766
34.279,35.929
34.256,36.087
34.237,36.239
34.223,36.38
34.212,36.508
34.204,36.623
34.196,36.724
34.188,36.811
34.178,36.885
34.164,36.944
34.147,36.988
34.125,37.02
34.097,37.038
34.064,37.045
34.026,37.04
33.984,37.026
33.94,37.004
33.895,36.977
33.85,36.945
33.808,36.91
33.771,36.871
33.738,36.83
33.71,36.786
33.687,36.742
33.668,36.698
33.653,36.655
33.641,36.613
33.631,36.572
33.623,36.532
33.615,36.493
33.605,36.454
33.593,36.415
33.578,36.376
33.56,36.337
33.538,36.298
33.514,36.257
33.49,36.216
33.465,36.174
33.442,36.132
33.421,36.088
33.406,36.045
33.398,36.002
33.401,35.962
33.417,35.923
33.447,35.887
33.495,35.853
33.561,35.823
33.646,35.795
33.749,35.771
33.869,35.75
34.003,35.73
34.149,35.713
34.303,35.699
34.464,35.689
34.626,35.681
34.786,35.676
34.941,35.673
35.089,35.672
35.227,35.67
35.353,35.669
35.468,35.668
35.57,35.666
35.66,35.664
35.739,35.663
35.808,35.662
35.868,35.662
35.919,35.661
35.964,35.661
36.003,35.66
36.036,35.658
36.063,35.657
36.086,35.656
36.105,35.657
36.12,35.658
36.131,35.659
36.137,35.659
36.139,35.658
36.134,35.656
36.123,35.653
36.105,35.649
36.08,35.642
36.049,35.634
36.01,35.622
35.966,35.608
35.918,35.592
35.867,35.573
35.813,35.551
35.758,35.527
35.703,35.502
35.649,35.476
35.598,35.45
35.549,35.424
35.501,35.4
35.456,35.376
35.412,35.352
35.368,35.328
35.323,35.303
35.277,35.278
35.231,35.252
35.183,35.225
35.135,35.197
35.088,35.168
35.041,35.138
34.998,35.108
34.958,35.078
34.922,35.046
34.891,35.013
34.867,34.981
34.85,34.949
34.839,34.921
34.834,34.894
34.835,34.87
34.841,34.847
34.85,34.825
34.861,34.805
34.875,34.787
34.889,34.772
34.903,34.759
34.917,34.748
34.93,34.738
34.942,34.729
34.952,34.719
34.96,34.709
34.966,34.697
34.971,34.682
34.975,34.665
34.977,34.645
34.978,34.624
34.978,34.602
34.978,34.579
34.978,34.554
34.978,34.529
34.978,34.504
34.979,34.479
34.98,34.456
34.982,34.434
34.984,34.417
34.985,34.406
34.986,34.404
34.986,34.414
34.983,34.439
34.978,34.481
34.969,34.539
34.955,34.613
34.936,34.705
34.91,34.814
34.878,34.94
34.84,35.083
34.797,35.241
34.748,35.411
34.694,35.591
34.638,35.776
34.581,35.964
34.523,36.152
34.468,36.337
34.417,36.516
34.369,36.688
34.326,36.851
34.289,37.004
34.256,37.144
34.229,37.271
34.207,37.383
34.189,37.481
34.175,37.564
34.164,37.635
34.154,37.693
34.146,37.738
34.137,37.772
34.128,37.794
34.118,37.805
34.108,37.806
34.096,37.797
34.083,37.78
34.069,37.757
34.054,37.73
34.039,37.697
34.025,37.66
34.011,37.617
34,37.568
33.991,37.515
33.984,37.458
33.979,37.398
33.976,37.336
33.975,37.273
33.974,37.209
33.974,37.145
33.974,37.082
33.975,37.019
33.978,36.959
33.983,36.899
33.993,36.841
34.01,36.785
34.037,36.729
34.074,36.676
34.125,36.624
34.19,36.573
34.27,36.523
34.365,36.475
34.474,36.428
34.596,36.385
34.73,36.344
34.872,36.305
35.019,36.269
35.169,36.235
35.319,36.205
35.468,36.178
35.612,36.153
35.751,36.132
35.884,36.115
36.009,36.101
36.124,36.091
36.229,36.084
36.322,36.081
36.401,36.079
36.466,36.081
36.516,36.085
36.551,36.091
36.573,36.098
36.582,36.106
36.579,36.114
36.565,36.121
36.543,36.127
36.515,36.132
36.481,36.137
36.444,36.139
36.406,36.139
36.366,36.137
36.327,36.135
36.288,36.131
36.251,36.127
36.214,36.122
36.178,36.116
36.144,36.108
36.11,36.099
36.078,36.088
36.047,36.075
36.018,36.061
35.989,36.044
35.96,36.026
35.93,36.008
35.9,35.989
35.868,35.969
35.833,35.947
35.796,35.923
35.755,35.898
35.711,35.874
35.664,35.849
35.614,35.824
35.561,35.798
35.506,35.77
35.45,35.741
35.394,35.71
35.34,35.677
35.289,35.644
35.243,35.61
35.201,35.575
35.165,35.541
35.135,35.508
35.11,35.476
35.091,35.445
35.076,35.414
35.065,35.385
35.059,35.354
35.057,35.323
35.057,35.291
35.06,35.258
35.065,35.225
35.07,35.191
35.075,35.157
35.079,35.123
35.082,35.088
35.083,35.054
35.082,35.021
35.078,34.987
35.071,34.954
35.061,34.923
35.05,34.893
35.039,34.867
35.027,34.842
35.016,34.817
35.006,34.794
34.998,34.769
34.992,34.745
34.987,34.721
34.985,34.697
34.983,34.672
34.982,34.645
34.98,34.616
34.978,34.587
34.974,34.557
34.969,34.527
34.96,34.499
34.949,34.476
34.934,34.459
34.916,34.451
34.893,34.457
34.866,34.477
34.836,34.514
34.803,34.567
34.767,34.639
34.728,34.729
34.689,34.837
34.648,34.963
34.606,35.105
34.566,35.261
34.527,35.431
34.491,35.613
34.459,35.804
34.433,36.002
34.412,36.205
34.397,36.409
34.386,36.613
34.379,36.815
34.374,37.012
34.37,37.201
34.367,37.38
34.364,37.546
34.361,37.698
34.358,37.835
34.354,37.955
34.35,38.06
34.343,38.147
34.335,38.217
34.325,38.27
34.311,38.306
34.294,38.326
34.274,38.331
34.25,38.321
34.222,38.299
34.192,38.267
34.159,38.228
34.124,38.182
34.089,38.13
34.056,38.074
34.025,38.015
34.001,37.953
33.984,37.891
33.978,37.83
33.986,37.769
34.009,37.709
34.049,37.651
34.106,37.593
34.182,37.536
34.275,37.48
34.384,37.423
34.508,37.367
34.644,37.311
34.79,37.256
34.943,37.202
35.101,37.148
35.26,37.094
35.418,37.04
35.571,36.986
35.716,36.934
35.85,36.883
35.971,36.834
36.079,36.788
36.172,36.745
36.25,36.704
36.313,36.665
36.362,36.629
36.398,36.596
36.422,36.565
36.436,36.539
36.439,36.516
36.435,36.497
36.423,36.482
36.405,36.47
36.383,36.46
36.357,36.453
36.329,36.447
36.3,36.442
36.27,36.44
36.241,36.437
36.212,36.435
36.184,36.433
36.155,36.431
36.126,36.431
36.095,36.431
36.062,36.433
36.026,36.435
35.987,36.438
35.942,36.443
35.893,36.448
35.839,36.454
35.782,36.462
35.72,36.469
35.657,36.476
35.594,36.481
35.532,36.483
35.472,36.482
35.417,36.476
35.367,36.467
35.322,36.454
35.282,36.439
35.246,36.421
35.215,36.401
35.187,36.381
35.162,36.358
35.139,36.333
35.118,36.307
35.096,36.278
35.075,36.249
35.052,36.218
35.027,36.186
35.001,36.154
34.973,36.121
34.944,36.086
34.914,36.049
34.885,36.01
34.855,35.969
34.827,35.926
34.8,35.884
34.776,35.843
34.754,35.802
34.736,35.761
34.722,35.72
34.712,35.679
34.707,35.638
34.706,35.599
34.708,35.56
34.714,35.522
34.723,35.484
34.733,35.447
34.743,35.409
34.752,35.373
34.76,35.337
34.764,35.303
34.765,35.271
34.762,35.239
34.757,35.209
34.749,35.181
34.738,35.156
34.726,35.133
34.713,35.112
34.699,35.091
34.685,35.07
34.671,35.049
34.658,35.026
34.647,34.999
34.636,34.968
34.627,34.933
34.618,34.895
34.609,34.856
34.598,34.817
34.584,34.78
34.568,34.745
34.546,34.716
34.52,34.693
34.489,34.682
34.453,34.684
34.412,34.702
34.367,34.739
34.32,34.797
34.271,34.875
34.224,34.975
34.18,35.097
34.14,35.239
34.105,35.4
34.075,35.579
34.051,35.771
34.031,35.975
34.016,36.187
34.004,36.404
33.995,36.622
33.987,36.837
33.979,37.045
33.972,37.243
33.964,37.431
33.955,37.605
33.944,37.763
33.931,37.905
33.917,38.029
33.901,38.136
33.883,38.225
33.864,38.296
33.844,38.351
33.825,38.392
33.806,38.419
33.789,38.436
33.774,38.442
33.764,38.438
33.759,38.425
33.763,38.404
33.775,38.376
33.799,38.342
33.835,38.302
33.885,38.258
33.951,38.209
34.031,38.155
34.127,38.098
34.236,38.037
34.356,37.973
34.485,37.907
34.621,37.839
34.76,37.771
34.9,37.702
35.038,37.631
35.174,37.558
35.306,37.484
35.432,37.408
35.552,37.331
35.664,37.255
35.768,37.179
35.863,37.104
35.948,37.031
36.021,36.96
36.082,36.892
36.131,36.825
36.169,36.762
36.195,36.7
36.21,36.642
36.215,36.585
36.213,36.532
36.203,36.48
36.188,36.431
36.169,36.382
36.147,36.334
36.123,36.286
36.097,36.24
36.07,36.194
36.042,36.151
36.013,36.11
35.983,36.073
35.951,36.04
35.918,36.013
35.883,35.992
35.846,35.976
35.807,35.965
35.766,35.958
35.722,35.955
35.677,35.954
35.629,35.955
35.58,35.958
35.529,35.962
35.477,35.966
35.424,35.97
35.371,35.974
35.317,35.977
35.266,35.98
35.216,35.982
35.17,35.986
35.128,35.99
35.092,35.996
35.061,36.002
35.036,36.009
35.017,36.015
35.004,36.019
34.996,36.023
34.993,36.027
34.994,36.031
34.996,36.036
35,36.04
35.004,36.043
35.007,36.045
35.008,36.043
35.006,36.039
35.003,36.031
34.997,36.021
34.989,36.008
34.98,35.992
34.969,35.973
34.957,35.949
34.943,35.921
34.93,35.888
34.916,35.851
34.902,35.809
34.89,35.765
34.88,35.72
34.872,35.674
34.865,35.627
34.861,35.578
34.859,35.529
34.857,35.479
34.856,35.429
34.853,35.378
34.847,35.327
34.838,35.276
34.824,35.225
34.805,35.176
34.78,35.129
34.75,35.084
34.716,35.042
34.679,35.002
34.64,34.963
34.601,34.925
34.562,34.889
34.524,34.854
34.487,34.821
34.453,34.789
34.421,34.758
34.391,34.729
34.363,34.7
34.337,34.671
34.312,34.642
34.288,34.613
34.265,34.584
34.24,34.554
34.214,34.524
34.188,34.496
34.16,34.471
34.131,34.449
34.101,34.433
34.069,34.424
34.037,34.427
34.003,34.445
33.969,34.481
33.933,34.536
33.897,34.613
33.86,34.714
33.823,34.838
33.787,34.986
33.753,35.156
33.722,35.347
33.694,35.555
33.668,35.779
33.646,36.014
33.627,36.258
33.611,36.508
33.597,36.758
33.585,37.005
33.574,37.245
33.563,37.474
33.551,37.69
33.538,37.891
33.525,38.074
33.511,38.24
33.497,38.386
33.484,38.512
33.473,38.619
33.465,38.705
33.461,38.771
33.462,38.817
33.47,38.844
33.487,38.853
33.514,38.847
33.552,38.827
33.602,38.794
33.664,38.752
33.74,38.701
33.829,38.645
33.929,38.583
34.041,38.518
34.162,38.45
34.291,38.381
34.424,38.312
34.561,38.242
34.697,38.171
34.832,38.1
34.961,38.026
35.084,37.951
35.198,37.876
35.303,37.799
35.398,37.723
35.482,37.645
35.556,37.567
35.619,37.489
35.672,37.411
35.716,37.334
35.751,37.258
35.778,37.183
35.796,37.11
35.808,37.039
35.813,36.971
35.811,36.905
35.805,36.842
35.794,36.782
35.779,36.725
35.761,36.672
35.741,36.623
35.719,36.58
35.695,36.54
35.671,36.505
35.646,36.472
35.621,36.443
35.594,36.417
35.566,36.395
35.536,36.377
35.502,36.362
35.464,36.351
35.421,36.343
35.373,36.338
35.321,36.334
35.265,36.331
35.207,36.33
35.148,36.329
35.09,36.329
35.034,36.332
34.982,36.336
34.935,36.34
34.893,36.343
34.859,36.345
34.832,36.345
34.812,36.344
34.799,36.34
34.791,36.334
34.788,36.325
34.788,36.312
34.789,36.296
34.791,36.277
34.793,36.255
34.795,36.232
34.797,36.207
34.798,36.183
34.799,36.159
34.799,36.135
34.797,36.112
34.795,36.088
34.793,36.064
34.79,36.038
34.787,36.01
34.786,35.98
34.786,35.948
34.787,35.912
34.79,35.873
34.795,35.831
34.801,35.788
34.808,35.745
34.817,35.701
34.827,35.658
34.838,35.614
34.849,35.57
34.858,35.525
34.866,35.481
34.871,35.437
34.873,35.394
34.873,35.351
34.871,35.307
34.868,35.262
34.864,35.215
34.859,35.168
34.854,35.12
34.848,35.072
34.842,35.025
34.835,34.98
34.827,34.936
34.818,34.895
34.807,34.855
34.795,34.814
34.78,34.774
34.763,34.734
34.743,34.696
34.722,34.659
34.698,34.624
34.673,34.589
34.647,34.556
34.621,34.524
34.595,34.492
34.57,34.461
34.547,34.43
34.526,34.4
34.508,34.37
34.493,34.339
34.48,34.306
34.47,34.273
34.46,34.241
34.451,34.212
34.443,34.186
34.433,34.166
34.423,34.154
34.412,34.152
34.4,34.163
34.386,34.189
34.369,34.234
34.351,34.3
34.331,34.387
34.309,34.496
34.285,34.628
34.26,34.781
34.233,34.953
34.207,35.143
34.18,35.349
34.154,35.568
34.13,35.798
34.109,36.035
34.09,36.275
34.075,36.514
34.064,36.747
34.057,36.972
34.056,37.186
34.061,37.388
34.074,37.574
34.096,37.745
34.129,37.897
34.175,38.031
34.234,38.146
34.309,38.243
34.397,38.321
34.499,38.382
34.613,38.427
34.738,38.456
34.871,38.471
35.011,38.471
35.154,38.457
35.297,38.431
35.436,38.393
35.57,38.346
35.697,38.291
35.814,38.229
35.921,38.16
36.016,38.088
36.1,38.012
36.171,37.934
36.229,37.853
36.274,37.77
36.307,37.686
36.328,37.602
36.34,37.519
36.343,37.435
36.34,37.35
36.33,37.265
36.315,37.179
36.295,37.093
36.271,37.009
36.245,36.928
36.216,36.848
36.186,36.772
36.154,36.698
36.122,36.626
36.09,36.557
36.057,36.49
36.025,36.424
35.994,36.36
35.963,36.297
35.932,36.236
35.901,36.178
35.868,36.122
35.833,36.07
35.796,36.02
35.756,35.975
35.714,35.935
35.671,35.9
35.627,35.871
35.583,35.846
35.539,35.825
35.497,35.808
35.458,35.794
35.421,35.784
35.389,35.778
35.36,35.775
35.334,35.775
35.312,35.775
35.29,35.777
35.269,35.78
35.247,35.785
35.223,35.791
35.196,35.798
35.168,35.806
35.139,35.813
35.108,35.819
35.078,35.823
35.048,35.825
35.019,35.826
34.991,35.825
34.964,35.822
34.939,35.818
34.917,35.812
34.899,35.803
34.884,35.79
34.873,35.772
34.866,35.749
34.862,35.722
34.861,35.692
34.863,35.659
34.867,35.624
34.873,35.587
34.879,35.549
34.885,35.51
34.889,35.471
34.892,35.433
34.891,35.396
34.888,35.359
34.883,35.323
34.875,35.286
34.867,35.25
34.858,35.212
34.849,35.174
34.842,35.135
34.837,35.094
34.833,35.052
34.829,35.008
34.826,34.963
34.823,34.918
34.818,34.873
34.812,34.83
34.806,34.789
34.798,34.751
34.789,34.716
34.777,34.681
34.764,34.645
34.749,34.608
34.732,34.569
34.713,34.53
34.693,34.492
34.671,34.454
34.649,34.416
34.625,34.377
34.6,34.338
34.575,34.297
34.551,34.258
34.527,34.218
34.504,34.18
34.483,34.143
34.463,34.107
34.446,34.071
34.432,34.036
34.419,34.002
34.408,33.969
34.399,33.936
34.392,33.902
34.384,33.867
34.376,33.832
34.367,33.795
34.355,33.759
34.341,33.724
34.323,33.693
34.301,33.665
34.277,33.644
34.25,33.632
34.222,33.633
34.195,33.648
34.169,33.681
34.146,33.735
34.127,33.812
34.114,33.914
34.107,34.041
34.108,34.193
34.117,34.367
34.135,34.56
34.163,34.771
34.202,34.995
34.251,35.23
34.312,35.472
34.384,35.717
34.467,35.96
34.562,36.2
34.667,36.433
34.782,36.656
34.906,36.866
35.037,37.059
35.173,37.234
35.312,37.389
35.451,37.522
35.59,37.634
35.724,37.723
35.852,37.791
35.972,37.839
36.081,37.868
36.179,37.882
36.265,37.881
36.338,37.867
36.398,37.842
36.446,37.809
36.481,37.768
36.505,37.722
36.517,37.67
36.519,37.614
36.513,37.554
36.499,37.491
36.481,37.425
36.458,37.357
36.432,37.285
36.404,37.21
36.375,37.132
36.345,37.052
36.314,36.969
36.283,36.886
36.251,36.801
36.218,36.717
36.185,36.633
36.152,36.55
36.118,36.468
36.084,36.389
36.048,36.313
36.012,36.239
35.974,36.167
35.935,36.098
35.894,36.032
35.852,35.969
35.807,35.909
35.76,35.852
35.711,35.798
35.661,35.748
35.609,35.702
35.556,35.661
35.504,35.623
35.452,35.59
35.404,35.561
35.359,35.536
35.317,35.515
35.28,35.497
35.247,35.483
35.218,35.47
35.193,35.458
35.172,35.447
35.155,35.437
35.141,35.428
35.13,35.421
35.124,35.414
35.119,35.408
35.117,35.403
35.117,35.398
35.116,35.395
35.116,35.392
35.116,35.389
35.113,35.385
35.109,35.38
35.103,35.374
35.093,35.367
35.081,35.361
35.066,35.356
35.048,35.35
35.028,35.344
35.009,35.336
34.99,35.327
34.973,35.316
34.959,35.304
34.949,35.291
34.942,35.277
34.94,35.261
34.942,35.244
34.946,35.226
34.952,35.205
34.958,35.181
34.961,35.153
34.962,35.122
34.957,35.089
34.948,35.054
34.934,35.019
34.915,34.98
34.893,34.939
34.868,34.896
34.841,34.851
34.812,34.804
34.781,34.757
34.749,34.711
34.716,34.665
34.682,34.621
34.647,34.58
34.612,34.54
34.576,34.504
34.542,34.471
34.511,34.439
34.482,34.41
34.456,34.381
34.433,34.352
34.412,34.325
34.392,34.298
34.373,34.271
34.354,34.243
34.334,34.213
34.313,34.183
34.29,34.152
34.266,34.121
34.239,34.089
34.211,34.057
34.18,34.024
34.149,33.991
34.117,33.958
34.086,33.926
34.056,33.894
34.029,33.861
34.006,33.829
33.987,33.796
33.971,33.763
33.958,33.729
33.949,33.695
33.941,33.661
33.935,33.626
33.93,33.591
33.925,33.557
33.919,33.526
33.911,33.499
33.903,33.479
33.894,33.469
33.885,33.47
33.875,33.488
33.866,33.524
33.857,33.581
33.848,33.66
33.84,33.764
33.834,33.89
33.831,34.039
33.832,34.209
33.839,34.399
33.853,34.607
33.878,34.828
33.913,35.06
33.961,35.299
34.022,35.541
34.097,35.783
34.184,36.022
34.284,36.254
34.395,36.476
34.514,36.686
34.641,36.879
34.774,37.055
34.908,37.212
35.041,37.347
35.17,37.46
35.293,37.551
35.409,37.619
35.517,37.667
35.614,37.696
35.701,37.706
35.776,37.7
35.841,37.68
35.895,37.647
35.939,37.605
35.972,37.554
35.995,37.497
36.008,37.435
36.011,37.368
36.007,37.298
35.996,37.227
35.979,37.154
35.957,37.081
35.931,37.007
35.901,36.932
35.869,36.857
35.836,36.779
35.801,36.699
35.766,36.617
35.732,36.532
35.698,36.447
35.666,36.362
35.635,36.278
35.606,36.196
35.577,36.115
35.55,36.035
35.524,35.957
35.497,35.881
35.47,35.807
35.442,35.738
35.413,35.671
35.383,35.608
35.35,35.55
35.316,35.495
35.28,35.446
35.245,35.401
35.209,35.361
35.174,35.326
35.142,35.296
35.112,35.272
35.085,35.253
35.062,35.237
35.043,35.223
35.028,35.211
35.017,35.2
35.01,35.19
35.006,35.181
35.006,35.172
35.008,35.162
35.013,35.153
35.019,35.144
35.026,35.135
35.034,35.127
35.04,35.121
35.045,35.115
35.049,35.109
35.05,35.103
35.048,35.096
35.042,35.09
35.033,35.084
35.02,35.079
35.005,35.074
34.987,35.068
34.969,35.061
34.952,35.052
34.938,35.038
34.927,35.02
34.92,34.998
34.917,34.972
34.918,34.943
34.923,34.913
34.93,34.881
34.938,34.849
34.946,34.816
34.954,34.783
34.96,34.749
34.963,34.716
34.964,34.683
34.96,34.652
34.951,34.621
34.937,34.591
34.919,34.561
34.897,34.532
34.872,34.503
34.846,34.474
34.82,34.443
34.794,34.41
34.77,34.373
34.749,34.333
34.73,34.291
34.715,34.247
34.702,34.203
34.693,34.159
34.687,34.113
34.683,34.067
34.68,34.019
34.678,33.972
34.675,33.924
34.671,33.877
34.665,33.83
34.658,33.782
34.651,33.736
34.642,33.69
34.633,33.646
34.624,33.603
34.616,33.56
34.609,33.519
34.602,33.477
34.597,33.436
34.594,33.397
34.592,33.36
34.592,33.326
34.591,33.295
34.59,33.267
34.589,33.241
34.588,33.218
34.585,33.196
34.581,33.176
34.575,33.157
34.567,33.139
34.557,33.122
34.546,33.104
34.531,33.086
34.515,33.069
34.497,33.054
34.477,33.042
34.457,33.035
34.436,33.034
34.418,33.043
34.402,33.065
34.391,33.101
34.384,33.155
34.385,33.229
34.392,33.326
34.406,33.448
34.429,33.596
34.46,33.771
34.501,33.97
34.553,34.191
34.615,34.432
34.689,34.689
34.773,34.96
34.868,35.24
34.972,35.525
35.084,35.812
35.203,36.095
35.328,36.371
35.455,36.636
35.584,36.886
35.711,37.119
35.834,37.333
35.952,37.524
36.061,37.693
36.161,37.839
36.251,37.963
36.331,38.064
36.401,38.144
36.461,38.203
36.512,38.243
36.553,38.265
36.587,38.27
36.612,38.259
36.629,38.233
36.639,38.193
36.642,38.143
36.638,38.083
36.63,38.016
36.617,37.945
36.6,37.871
36.579,37.796
36.555,37.722
36.527,37.649
36.495,37.577
36.461,37.505
36.423,37.435
36.384,37.365
36.344,37.295
36.304,37.226
36.266,37.155
36.23,37.083
36.196,37.009
36.165,36.933
36.137,36.855
36.111,36.775
36.086,36.695
36.063,36.613
36.04,36.529
36.016,36.445
35.991,36.361
35.964,36.277
35.933,36.194
35.898,36.112
35.86,36.031
35.818,35.954
35.773,35.88
35.727,35.81
35.68,35.745
35.634,35.684
35.591,35.629
35.551,35.579
35.515,35.536
35.484,35.498
35.459,35.465
35.439,35.437
35.425,35.413
35.415,35.394
35.409,35.38
35.406,35.372
35.402,35.37
35.399,35.374
35.394,35.383
35.387,35.395
35.379,35.411
35.369,35.431
35.359,35.453
35.35,35.478
35.341,35.504
35.333,35.529
35.328,35.552
35.326,35.572
35.328,35.587
35.335,35.597
35.346,35.602
35.361,35.602
35.379,35.598
35.4,35.591
35.422,35.582
35.444,35.57
35.466,35.557
35.486,35.542
35.502,35.526
35.515,35.51
35.524,35.493
35.527,35.475
35.526,35.456
35.521,35.435
35.511,35.413
35.497,35.39
35.479,35.366
35.458,35.343
35.435,35.319
35.409,35.295
35.38,35.27
35.349,35.243
35.316,35.214
35.281,35.184
35.244,35.152
35.207,35.119
35.169,35.086
35.131,35.053
35.095,35.019
35.058,34.983
35.023,34.946
34.988,34.906
34.954,34.864
34.918,34.82
34.883,34.775
34.848,34.728
34.813,34.679
34.78,34.629
34.748,34.578
34.717,34.527
34.688,34.477
34.662,34.427
34.637,34.379
34.615,34.331
34.594,34.286
34.574,34.243
34.555,34.204
34.536,34.17
34.517,34.14
34.497,34.114
34.476,34.09
34.452,34.067
34.426,34.043
34.397,34.02
34.364,33.995
34.33,33.97
34.293,33.942
34.256,33.913
34.219,33.882
34.183,33.851
34.15,33.821
34.121,33.792
34.098,33.768
34.083,33.751
34.079,33.742
34.087,33.745
34.111,33.763
34.15,33.797
34.208,33.851
34.283,33.927
34.375,34.027
34.485,34.151
34.609,34.299
34.745,34.47
34.89,34.663
35.04,34.875
35.191,35.105
35.34,35.351
35.483,35.609
35.618,35.877
35.742,36.15
35.854,36.424
35.953,36.695
36.038,36.96
36.111,37.216
36.173,37.461
36.223,37.69
36.263,37.903
36.294,38.096
36.317,38.268
36.333,38.415
36.343,38.538
36.348,38.635
36.348,38.708
36.345,38.759
36.339,38.788
36.329,38.799
36.316,38.791
36.299,38.768
36.277,38.731
36.25,38.682
36.22,38.623
36.186,38.555
36.149,38.479
36.112,38.398
36.074,38.312
36.037,38.223
36.001,38.131
35.966,38.037
35.932,37.941
35.899,37.846
35.866,37.751
35.834,37.658
35.802,37.565
35.769,37.473
35.736,37.382
35.703,37.292
35.669,37.204
35.636,37.118
35.603,37.034
35.572,36.954
35.541,36.878
35.512,36.806
35.485,36.737
35.461,36.67
35.438,36.606
35.418,36.543
35.401,36.483
35.385,36.425
35.371,36.369
35.36,36.315
35.352,36.262
35.346,36.211
35.343,36.16
35.342,36.11
35.342,36.063
35.345,36.019
35.348,35.98
35.35,35.945
35.352,35.915
35.353,35.89
35.352,35.87
35.35,35.855
35.347,35.845
35.343,35.839
35.339,35.838
35.336,35.842
35.335,35.849
35.336,35.859
35.34,35.871
35.347,35.883
35.357,35.896
35.37,35.909
35.387,35.921
35.406,35.932
35.426,35.94
35.447,35.945
35.467,35.947
35.486,35.943
35.502,35.935
35.515,35.922
35.524,35.904
35.528,35.882
35.527,35.856
35.522,35.827
35.512,35.796
35.499,35.763
35.483,35.729
35.464,35.694
35.442,35.658
35.419,35.623
35.392,35.588
35.362,35.553
35.331,35.517
35.297,35.479
35.262,35.441
35.226,35.401
35.19,35.36
35.154,35.318
35.118,35.275
35.083,35.229
35.05,35.183
35.019,35.136
34.991,35.089
34.967,35.043
34.946,34.997
34.929,34.952
34.916,34.908
34.907,34.866
34.901,34.823
34.897,34.78
34.894,34.737
34.893,34.693
34.89,34.649
34.887,34.606
34.882,34.564
34.874,34.523
34.864,34.481
34.851,34.439
34.836,34.396
34.819,34.352
34.801,34.308
34.782,34.264
34.761,34.22
34.739,34.177
34.716,34.134
34.691,34.091
34.666,34.047
34.642,34.004
34.618,33.962
34.596,33.918
34.576,33.873
34.558,33.827
34.543,33.779
34.531,33.731
34.524,33.684
34.52,33.637
34.523,33.592
34.533,33.55
34.55,33.512
34.578,33.483
34.617,33.465
34.667,33.462
34.731,33.477
34.808,33.514
34.899,33.575
35.004,33.663
35.122,33.777
35.252,33.92
35.392,34.089
35.539,34.282
35.691,34.496
35.844,34.728
35.996,34.975
36.142,35.232
36.282,35.495
36.411,35.76
36.529,36.021
36.634,36.276
36.724,36.519
36.799,36.749
36.857,36.963
36.9,37.158
36.926,37.335
36.937,37.493
36.934,37.631
36.92,37.75
36.896,37.849
36.865,37.928
36.828,37.988
36.787,38.03
36.745,38.057
36.701,38.071
36.657,38.072
36.613,38.062
36.572,38.041
36.533,38.01
36.497,37.971
36.464,37.926
36.434,37.875
36.408,37.818
36.384,37.756
36.365,37.688
36.347,37.615
36.331,37.538
36.315,37.456
36.298,37.372
36.279,37.287
36.258,37.204
36.235,37.124
36.21,37.048
36.182,36.976
36.152,36.908
36.12,36.842
36.088,36.779
36.054,36.717
36.019,36.656
35.984,36.596
35.948,36.537
35.913,36.48
35.877,36.425
35.843,36.371
35.81,36.318
35.778,36.267
35.749,36.215
35.723,36.165
35.699,36.117
35.677,36.069
35.658,36.024
35.64,35.978
35.623,35.934
35.607,35.89
35.592,35.848
35.577,35.809
35.563,35.775
35.549,35.745
35.536,35.72
35.522,35.701
35.509,35.687
35.497,35.679
35.484,35.677
35.472,35.679
35.46,35.686
35.449,35.697
35.438,35.712
35.427,35.73
35.417,35.75
35.407,35.77
35.398,35.79
35.389,35.809
35.382,35.827
35.375,35.843
35.368,35.856
35.361,35.866
35.354,35.872
35.347,35.874
35.338,35.872
35.328,35.866
35.316,35.857
35.302,35.844
35.287,35.827
35.269,35.808
35.25,35.788
35.23,35.766
35.208,35.744
35.185,35.72
35.161,35.696
35.134,35.671
35.104,35.644
35.072,35.614
35.037,35.582
34.999,35.548
34.958,35.511
34.915,35.472
34.87,35.431
34.824,35.389
34.776,35.345
34.729,35.299
34.682,35.25
34.638,35.201
34.598,35.15
34.562,35.1
34.531,35.051
34.506,35.002
34.487,34.952
34.474,34.902
34.467,34.853
34.464,34.803
34.463,34.755
34.465,34.709
34.469,34.665
34.473,34.625
34.477,34.588
34.48,34.555
34.48,34.524
34.479,34.494
34.473,34.466
34.465,34.437
34.453,34.409
34.437,34.38
34.419,34.348
34.398,34.313
34.375,34.274
34.351,34.231
34.324,34.184
34.297,34.133
34.269,34.08
34.242,34.023
34.216,33.965
34.191,33.909
34.168,33.858
34.147,33.816
34.129,33.788
34.114,33.776
34.102,33.783
34.092,33.812
34.086,33.865
34.084,33.944
34.087,34.05
34.094,34.183
34.108,34.345
34.127,34.532
34.155,34.744
34.192,34.976
34.241,35.227
34.302,35.492
34.376,35.766
34.464,36.045
34.566,36.327
34.68,36.606
34.806,36.877
34.942,37.135
35.084,37.376
35.231,37.596
35.379,37.795
35.526,37.969
35.669,38.119
35.807,38.245
35.937,38.345
36.057,38.422
36.166,38.477
36.263,38.513
36.348,38.531
36.42,38.535
36.479,38.527
36.527,38.509
36.563,38.483
36.589,38.45
36.607,38.411
36.617,38.366
36.621,38.314
36.619,38.258
36.614,38.197
36.606,38.134
36.595,38.067
36.584,37.999
36.572,37.928
36.56,37.855
36.549,37.779
36.538,37.7
36.526,37.616
36.513,37.529
36.497,37.44
36.477,37.349
36.454,37.257
36.425,37.164
36.393,37.069
36.355,36.972
36.313,36.875
36.267,36.779
36.217,36.684
36.166,36.589
36.112,36.496
