Trial 3:3back,Trial 5:3back
30.548,32.028
30.497,31.997
30.448,31.967
30.4,31.941
30.353,31.92
30.307,31.906
30.259,31.903
30.211,31.918
30.163,31.958
30.115,32.029
30.068,32.141
30.024,32.3
29.981,32.516
29.939,32.793
29.899,33.133
29.86,33.537
29.821,34.004
29.782,34.526
29.744,35.097
29.706,35.704
29.669,36.335
29.632,36.976
29.597,37.613
29.565,38.23
29.538,38.815
29.516,39.356
29.502,39.843
29.499,40.268
29.51,40.625
29.54,40.911
29.597,41.126
29.69,41.272
29.828,41.353
30.022,41.374
30.282,41.342
30.619,41.264
31.039,41.149
31.548,41.005
32.144,40.841
32.823,40.662
33.574,40.476
34.385,40.287
35.238,40.102
36.111,39.923
36.986,39.752
37.84,39.59
38.657,39.441
39.418,39.304
40.109,39.178
40.72,39.061
41.243,38.952
41.675,38.85
42.015,38.753
42.265,38.659
42.432,38.566
42.521,38.473
42.541,38.379
42.5,38.284
42.408,38.185
42.275,38.082
42.111,37.975
41.924,37.861
41.723,37.741
41.516,37.616
41.308,37.488
41.106,37.357
40.913,37.227
40.731,37.098
40.562,36.972
40.408,36.851
40.265,36.736
40.134,36.627
40.01,36.525
39.893,36.433
39.78,36.351
39.671,36.278
39.564,36.215
39.457,36.163
39.349,36.121
39.238,36.091
39.124,36.07
39.006,36.059
38.884,36.059
38.756,36.066
38.623,36.08
38.484,36.098
38.335,36.119
38.175,36.142
38.007,36.164
37.834,36.186
37.659,36.206
37.485,36.223
37.318,36.237
37.158,36.245
37.01,36.248
36.873,36.246
36.75,36.238
36.64,36.222
36.543,36.2
36.46,36.172
36.388,36.137
36.328,36.096
36.279,36.048
36.24,35.995
36.209,35.935
36.185,35.869
36.168,35.797
36.156,35.719
36.147,35.639
36.142,35.556
36.138,35.471
36.136,35.383
36.134,35.296
36.132,35.207
36.128,35.118
36.121,35.028
36.111,34.939
36.096,34.851
36.076,34.764
36.052,34.679
36.021,34.595
35.984,34.513
35.942,34.433
35.896,34.353
35.844,34.276
35.788,34.199
35.728,34.124
35.663,34.051
35.594,33.98
35.521,33.909
35.443,33.839
35.36,33.771
35.271,33.703
35.177,33.637
35.079,33.572
34.978,33.509
34.873,33.448
34.764,33.388
34.652,33.331
34.537,33.274
34.42,33.219
34.302,33.165
34.181,33.109
34.06,33.053
33.938,32.995
33.817,32.938
33.698,32.879
33.582,32.821
33.469,32.764
33.36,32.708
33.254,32.655
33.151,32.602
33.051,32.551
32.953,32.501
32.856,32.452
32.76,32.403
32.665,32.353
32.57,32.304
32.476,32.256
32.382,32.209
32.289,32.163
32.196,32.118
32.103,32.075
32.012,32.033
31.921,31.991
31.833,31.95
31.747,31.91
31.664,31.872
31.584,31.836
31.506,31.802
31.43,31.773
31.355,31.749
31.278,31.734
31.193,31.729
31.097,31.739
30.993,31.769
30.883,31.823
30.771,31.911
30.663,32.039
30.563,32.217
30.474,32.452
30.399,32.75
30.339,33.114
30.293,33.541
30.26,34.03
30.238,34.572
30.224,35.159
30.216,35.778
30.21,36.417
30.205,37.06
30.198,37.692
30.186,38.298
30.169,38.866
30.146,39.384
30.116,39.842
30.08,40.234
30.038,40.555
29.992,40.804
29.942,40.982
29.89,41.093
29.835,41.143
29.78,41.138
29.726,41.086
29.672,40.995
29.619,40.874
29.565,40.73
29.51,40.57
29.455,40.4
29.4,40.227
29.347,40.054
29.299,39.887
29.256,39.726
29.224,39.573
29.206,39.43
29.208,39.296
29.238,39.171
29.304,39.054
29.418,38.945
29.59,38.841
29.831,38.743
30.15,38.649
30.553,38.558
31.042,38.469
31.619,38.381
32.28,38.291
33.015,38.2
33.813,38.105
34.658,38.007
35.534,37.906
36.42,37.8
37.297,37.691
38.145,37.577
38.946,37.46
39.684,37.341
40.346,37.222
40.922,37.104
41.407,36.99
41.797,36.879
42.093,36.773
42.299,36.672
42.423,36.578
42.471,36.491
42.453,36.41
42.379,36.337
42.259,36.273
42.104,36.219
41.922,36.174
41.722,36.139
41.51,36.114
41.292,36.098
41.072,36.091
40.856,36.092
40.647,36.098
40.446,36.109
40.255,36.123
40.075,36.138
39.907,36.153
39.751,36.166
39.605,36.176
39.47,36.183
39.341,36.185
39.216,36.183
39.093,36.176
38.971,36.163
38.846,36.145
38.719,36.121
38.588,36.091
38.453,36.056
38.313,36.014
38.169,35.966
38.021,35.913
37.867,35.854
37.71,35.791
37.55,35.723
37.387,35.652
37.223,35.576
37.06,35.496
36.899,35.412
36.745,35.325
36.598,35.235
36.46,35.143
36.331,35.05
36.212,34.956
36.103,34.861
36.003,34.766
35.913,34.671
35.831,34.574
35.757,34.476
35.692,34.378
35.634,34.28
35.585,34.182
35.543,34.086
35.509,33.993
35.481,33.903
35.458,33.817
35.44,33.735
35.425,33.656
35.412,33.582
35.399,33.51
35.385,33.441
35.37,33.375
35.354,33.312
35.335,33.253
35.313,33.197
35.288,33.142
35.257,33.089
35.22,33.037
35.178,32.987
35.127,32.936
35.068,32.885
35.002,32.834
34.929,32.783
34.851,32.733
34.768,32.683
34.683,32.634
34.596,32.586
34.507,32.539
34.417,32.491
34.326,32.444
34.232,32.398
34.137,32.351
34.039,32.305
33.939,32.26
33.836,32.217
33.732,32.175
33.626,32.135
33.518,32.097
33.408,32.06
33.297,32.024
33.185,31.988
33.071,31.952
32.959,31.916
32.847,31.88
32.739,31.845
32.633,31.811
32.535,31.778
32.451,31.745
32.381,31.713
32.323,31.681
32.272,31.651
32.224,31.621
32.175,31.591
32.121,31.56
32.059,31.527
31.988,31.483
31.906,31.425
31.811,31.358
31.706,31.287
31.591,31.223
31.469,31.175
31.342,31.153
31.212,31.167
31.083,31.228
30.958,31.346
30.838,31.527
30.726,31.781
30.621,32.11
30.524,32.514
30.433,32.992
30.349,33.537
30.272,34.14
30.2,34.79
30.133,35.472
30.071,36.174
30.014,36.879
29.96,37.571
29.909,38.235
29.86,38.856
29.814,39.422
29.769,39.924
29.726,40.356
29.684,40.713
29.642,40.994
29.599,41.199
29.556,41.332
29.51,41.397
29.463,41.402
29.414,41.355
29.364,41.263
29.314,41.136
29.264,40.982
29.215,40.809
29.167,40.624
29.119,40.433
29.073,40.242
29.027,40.055
28.981,39.876
28.935,39.707
28.887,39.547
28.84,39.397
28.795,39.258
28.754,39.129
28.719,39.009
28.693,38.897
28.682,38.792
28.693,38.693
28.737,38.6
28.822,38.508
28.962,38.418
29.169,38.327
29.453,38.234
29.824,38.137
30.289,38.036
30.848,37.933
31.501,37.83
32.243,37.726
33.062,37.62
33.947,37.513
34.878,37.403
35.836,37.292
36.801,37.18
37.751,37.068
38.667,36.956
39.529,36.845
40.32,36.737
41.028,36.632
41.643,36.533
42.16,36.44
42.576,36.356
42.893,36.282
43.116,36.218
43.251,36.165
43.308,36.123
43.295,36.091
43.225,36.068
43.107,36.053
42.951,36.047
42.767,36.046
42.564,36.052
42.348,36.061
42.127,36.075
41.905,36.091
41.687,36.108
41.474,36.125
41.268,36.14
41.071,36.155
40.883,36.167
40.702,36.174
40.53,36.176
40.365,36.172
40.207,36.16
40.056,36.14
39.909,36.11
39.765,36.073
39.623,36.029
39.483,35.977
39.344,35.917
39.205,35.851
39.066,35.779
38.925,35.702
38.783,35.618
38.639,35.531
38.494,35.441
38.346,35.348
38.196,35.255
38.045,35.16
37.893,35.066
37.741,34.972
37.591,34.876
37.443,34.781
37.298,34.686
37.158,34.593
37.024,34.501
36.896,34.41
36.773,34.322
36.657,34.236
36.546,34.151
36.443,34.067
36.347,33.984
36.259,33.901
36.179,33.819
36.107,33.736
36.044,33.655
35.991,33.576
35.945,33.499
35.906,33.423
35.874,33.348
35.846,33.277
35.822,33.208
35.8,33.142
35.779,33.076
35.759,33.013
35.739,32.953
35.72,32.896
35.698,32.84
35.674,32.788
35.646,32.737
35.613,32.687
35.574,32.638
35.529,32.588
35.477,32.537
35.417,32.486
35.35,32.434
35.276,32.383
35.196,32.334
35.108,32.286
35.013,32.239
34.911,32.195
34.803,32.151
34.69,32.11
34.572,32.069
34.451,32.029
34.327,31.99
34.203,31.952
34.08,31.916
33.957,31.881
33.834,31.847
33.711,31.814
33.588,31.781
33.465,31.747
33.341,31.714
33.218,31.68
33.096,31.647
32.974,31.614
32.854,31.582
32.736,31.555
32.62,31.531
32.504,31.509
32.389,31.489
32.273,31.469
32.159,31.449
32.046,31.428
31.935,31.404
31.828,31.379
31.723,31.352
31.623,31.323
31.527,31.292
31.435,31.261
31.345,31.23
31.258,31.2
31.172,31.17
31.089,31.142
31.007,31.118
30.925,31.098
30.845,31.086
30.764,31.085
30.683,31.102
30.6,31.144
30.516,31.219
30.431,31.336
30.347,31.506
30.264,31.736
30.184,32.033
30.107,32.403
30.032,32.846
29.959,33.361
29.888,33.941
29.818,34.577
29.749,35.258
29.68,35.969
29.612,36.694
29.544,37.416
29.478,38.118
29.412,38.786
29.349,39.405
29.287,39.963
29.227,40.45
29.169,40.86
29.114,41.191
29.062,41.442
29.013,41.614
28.968,41.712
28.925,41.742
28.885,41.712
28.846,41.632
28.805,41.509
28.763,41.354
28.72,41.176
28.677,40.984
28.636,40.783
28.6,40.58
28.569,40.379
28.547,40.184
28.538,39.998
28.545,39.823
28.576,39.659
28.64,39.507
28.748,39.368
28.913,39.241
29.147,39.126
29.461,39.021
29.865,38.924
30.366,38.833
30.965,38.745
31.661,38.659
32.447,38.573
33.311,38.485
34.239,38.391
35.214,38.292
36.217,38.186
37.227,38.074
38.223,37.956
39.181,37.833
40.083,37.706
40.912,37.575
41.652,37.442
42.293,37.308
42.827,37.174
43.252,37.043
43.569,36.915
43.781,36.793
43.896,36.678
43.924,36.572
43.877,36.476
43.769,36.391
43.612,36.316
43.421,36.254
43.205,36.205
42.976,36.169
42.741,36.146
42.507,36.135
42.281,36.134
42.065,36.141
41.862,36.155
41.673,36.175
41.497,36.197
41.335,36.221
41.183,36.247
41.041,36.271
40.905,36.294
40.773,36.312
40.643,36.324
40.513,36.329
40.382,36.327
40.247,36.318
40.107,36.3
39.96,36.273
39.808,36.238
39.648,36.198
39.481,36.151
39.306,36.098
39.126,36.041
38.94,35.981
38.753,35.918
38.566,35.851
38.38,35.78
38.198,35.706
38.021,35.628
37.851,35.544
37.689,35.455
37.535,35.363
37.388,35.267
37.248,35.169
37.117,35.069
36.994,34.969
36.88,34.869
36.774,34.77
36.675,34.671
36.584,34.573
36.5,34.477
36.422,34.381
36.35,34.286
36.283,34.192
36.219,34.099
36.16,34.009
36.106,33.92
36.058,33.831
36.014,33.743
35.974,33.658
35.939,33.573
35.907,33.49
35.878,33.408
35.851,33.33
35.824,33.254
35.796,33.181
35.766,33.109
35.733,33.04
35.697,32.972
35.657,32.903
35.61,32.834
35.557,32.765
35.497,32.697
35.43,32.63
35.355,32.565
35.273,32.501
35.182,32.44
35.084,32.382
34.978,32.327
34.866,32.274
34.748,32.224
34.626,32.176
34.505,32.131
34.386,32.09
34.271,32.06
34.159,32.044
34.049,32.04
33.941,32.044
33.832,32.051
33.723,32.059
33.613,32.061
33.5,32.054
33.384,32.035
33.265,32.003
33.144,31.959
33.021,31.904
32.895,31.839
32.768,31.768
32.639,31.692
32.511,31.613
32.382,31.533
32.254,31.455
32.127,31.379
32.002,31.307
31.878,31.242
31.757,31.183
31.64,31.131
31.525,31.086
31.415,31.048
31.308,31.017
31.206,30.99
31.106,30.965
31.009,30.943
30.915,30.923
30.823,30.908
30.734,30.898
30.646,30.897
30.56,30.91
30.475,30.942
30.391,31.001
30.309,31.096
30.23,31.234
30.153,31.425
30.081,31.676
30.014,31.993
29.952,32.377
29.894,32.831
29.839,33.35
29.786,33.927
29.733,34.552
29.68,35.213
29.626,35.895
29.571,36.582
29.514,37.259
29.455,37.912
29.396,38.526
29.335,39.091
29.275,39.596
29.214,40.033
29.154,40.399
29.095,40.69
29.037,40.908
28.982,41.055
28.928,41.135
28.874,41.154
28.822,41.119
28.769,41.039
28.717,40.92
28.666,40.77
28.616,40.598
28.57,40.409
28.53,40.211
28.499,40.009
28.481,39.808
28.477,39.612
28.494,39.424
28.537,39.245
28.617,39.077
28.743,38.919
28.928,38.772
29.184,38.635
29.519,38.507
29.943,38.385
30.46,38.267
31.071,38.15
31.773,38.034
32.559,37.916
33.421,37.796
34.343,37.675
35.309,37.55
36.3,37.423
37.294,37.292
38.273,37.159
39.214,37.024
40.099,36.89
40.91,36.757
41.634,36.626
42.261,36.499
42.786,36.376
43.205,36.258
43.519,36.147
43.731,36.042
43.848,35.945
43.879,35.857
43.837,35.779
43.731,35.711
43.577,35.654
43.384,35.609
43.165,35.573
42.929,35.548
42.686,35.533
42.442,35.526
42.203,35.527
41.972,35.536
41.752,35.552
41.544,35.572
41.347,35.597
41.162,35.624
40.986,35.651
40.82,35.675
40.662,35.697
40.512,35.714
40.367,35.726
40.225,35.734
40.084,35.738
39.942,35.736
39.799,35.729
39.652,35.715
39.501,35.694
39.344,35.666
39.182,35.631
39.015,35.589
38.845,35.54
38.673,35.485
38.501,35.424
38.329,35.356
38.159,35.283
37.992,35.203
37.829,35.119
37.669,35.03
37.513,34.937
37.363,34.843
37.217,34.747
37.079,34.651
36.949,34.557
36.826,34.463
36.713,34.37
36.61,34.277
36.516,34.186
36.429,34.096
36.349,34.007
36.274,33.921
36.203,33.836
36.134,33.753
36.07,33.671
36.009,33.59
35.952,33.51
35.899,33.431
35.85,33.354
35.805,33.277
35.762,33.202
35.72,33.128
35.679,33.055
35.636,32.982
35.592,32.91
35.546,32.837
35.496,32.764
35.443,32.69
35.386,32.617
35.325,32.543
35.26,32.471
35.19,32.4
35.115,32.327
35.031,32.249
34.941,32.166
34.843,32.079
34.74,31.993
34.632,31.911
34.519,31.833
34.404,31.763
34.286,31.703
34.168,31.651
34.049,31.608
33.929,31.573
33.81,31.546
33.692,31.524
33.576,31.506
33.461,31.49
33.348,31.474
33.237,31.456
33.127,31.435
33.019,31.411
32.913,31.383
32.806,31.352
32.699,31.319
32.591,31.283
32.483,31.245
32.375,31.205
32.267,31.165
32.161,31.123
32.056,31.08
31.955,31.036
31.855,30.991
31.758,30.946
31.662,30.903
31.567,30.863
31.473,30.828
31.38,30.8
31.288,30.782
31.198,30.78
31.108,30.799
31.018,30.846
30.928,30.93
30.837,31.058
30.745,31.242
30.652,31.488
30.557,31.803
30.462,32.192
30.368,32.655
30.277,33.188
30.188,33.785
30.103,34.434
30.021,35.123
29.942,35.837
29.867,36.559
29.792,37.272
29.719,37.962
29.646,38.613
29.573,39.213
29.5,39.751
29.425,40.218
29.349,40.61
29.272,40.923
29.196,41.16
29.12,41.321
29.046,41.413
28.976,41.442
28.911,41.417
28.851,41.345
28.799,41.235
28.753,41.096
28.713,40.935
28.679,40.76
28.648,40.576
28.62,40.388
28.594,40.201
28.569,40.018
28.544,39.842
28.52,39.675
28.498,39.518
28.478,39.371
28.463,39.233
28.455,39.106
28.456,38.988
28.471,38.876
28.506,38.77
28.568,38.667
28.666,38.566
28.813,38.466
29.02,38.363
29.298,38.257
29.656,38.147
30.102,38.033
30.64,37.914
31.271,37.791
31.994,37.662
32.801,37.531
33.68,37.397
34.618,37.262
35.595,37.127
36.594,36.994
37.592,36.865
38.569,36.742
39.503,36.626
40.374,36.519
41.168,36.421
41.871,36.334
42.473,36.256
42.969,36.188
43.356,36.131
43.638,36.085
43.818,36.05
43.905,36.025
43.908,36.013
43.837,36.011
43.705,36.019
43.525,36.036
43.309,36.062
43.07,36.095
42.816,36.132
42.555,36.173
42.296,36.214
42.042,36.254
41.798,36.292
41.567,36.326
41.35,36.354
41.149,36.374
40.962,36.386
40.788,36.389
40.626,36.383
40.472,36.368
40.324,36.344
40.181,36.311
40.041,36.268
39.9,36.215
39.757,36.151
39.61,36.079
39.456,35.998
39.294,35.911
39.124,35.82
38.945,35.725
38.759,35.628
38.566,35.529
38.368,35.429
38.168,35.328
37.968,35.227
37.77,35.126
37.574,35.023
37.383,34.921
37.199,34.82
37.022,34.719
36.854,34.618
36.694,34.518
36.543,34.417
36.401,34.316
36.269,34.215
36.145,34.114
36.031,34.013
35.924,33.914
35.824,33.815
35.73,33.719
35.642,33.623
35.559,33.53
35.482,33.438
35.412,33.346
35.347,33.256
35.289,33.167
35.236,33.078
35.187,32.99
35.142,32.904
35.098,32.82
35.055,32.734
35.01,32.648
34.964,32.562
34.913,32.475
34.852,32.39
34.779,32.308
34.696,32.229
34.605,32.154
34.508,32.084
34.406,32.017
34.302,31.953
34.199,31.893
34.096,31.833
33.997,31.775
33.901,31.716
33.809,31.657
33.723,31.598
33.641,31.539
33.561,31.478
33.483,31.416
33.404,31.357
33.322,31.298
33.237,31.241
33.147,31.185
33.052,31.131
32.953,31.078
32.85,31.026
32.743,30.975
32.633,30.925
32.519,30.876
32.404,30.829
32.287,30.784
32.168,30.74
32.05,30.698
31.932,30.659
31.816,30.622
31.703,30.585
31.594,30.55
31.491,30.516
31.391,30.484
31.295,30.455
31.202,30.432
31.112,30.419
31.025,30.421
30.94,30.447
30.857,30.505
30.776,30.608
30.695,30.764
30.615,30.987
30.535,31.285
30.453,31.665
30.369,32.129
30.284,32.676
30.197,33.3
30.11,33.993
30.023,34.74
29.937,35.523
29.852,36.323
29.768,37.12
29.686,37.895
29.605,38.631
29.526,39.314
29.448,39.933
29.373,40.48
29.301,40.949
29.232,41.335
29.165,41.639
29.101,41.864
29.04,42.014
28.982,42.095
28.926,42.113
28.872,42.077
28.82,41.995
28.77,41.874
28.722,41.724
28.674,41.551
28.626,41.363
28.577,41.165
28.526,40.963
28.474,40.761
28.422,40.563
28.371,40.371
28.321,40.185
28.274,40.008
28.231,39.84
28.194,39.682
28.162,39.533
28.136,39.391
28.118,39.256
28.107,39.126
28.108,39
28.124,38.877
28.161,38.754
28.224,38.632
28.321,38.507
28.462,38.38
28.659,38.248
28.922,38.113
29.261,37.973
29.686,37.829
30.203,37.683
30.813,37.536
31.516,37.39
32.305,37.244
33.169,37.1
34.095,36.958
35.066,36.821
36.062,36.689
37.062,36.564
38.047,36.446
38.997,36.337
39.894,36.233
40.722,36.131
41.467,36.031
42.121,35.935
42.676,35.846
43.129,35.767
43.481,35.701
43.736,35.65
43.897,35.615
43.973,35.596
43.971,35.59
43.902,35.597
43.776,35.614
43.605,35.639
43.398,35.669
43.166,35.702
42.918,35.738
42.663,35.773
42.406,35.804
42.154,35.829
41.91,35.848
41.677,35.859
41.457,35.86
41.249,35.852
41.053,35.834
40.867,35.806
40.689,35.77
40.515,35.723
40.345,35.667
40.175,35.602
40.003,35.529
39.827,35.447
39.647,35.358
39.462,35.263
39.273,35.164
39.078,35.061
38.879,34.956
38.674,34.848
38.467,34.74
38.257,34.63
38.047,34.52
37.836,34.41
37.627,34.3
37.42,34.191
37.218,34.081
37.022,33.973
36.833,33.866
36.652,33.761
36.48,33.657
36.317,33.554
36.163,33.453
36.019,33.354
35.885,33.257
35.761,33.162
35.645,33.068
35.539,32.977
35.442,32.887
35.353,32.798
35.271,32.711
35.195,32.623
35.125,32.535
35.06,32.447
34.998,32.359
34.938,32.272
34.878,32.186
34.817,32.101
34.753,32.016
34.685,31.931
34.613,31.846
34.537,31.762
34.456,31.678
34.372,31.595
34.284,31.513
34.191,31.432
34.093,31.354
33.992,31.279
33.888,31.207
33.783,31.139
33.677,31.074
33.572,31.013
33.467,30.954
33.363,30.897
33.26,30.842
33.158,30.788
33.057,30.734
32.955,30.68
32.852,30.626
32.75,30.571
32.648,30.515
32.546,30.456
32.445,30.396
32.345,30.333
32.245,30.269
32.146,30.203
32.048,30.137
31.951,30.07
31.854,30.004
31.759,29.94
31.665,29.88
31.573,29.823
31.482,29.77
31.392,29.721
31.304,29.676
31.216,29.634
31.13,29.594
31.044,29.556
30.959,29.522
30.874,29.491
30.79,29.465
30.706,29.446
30.622,29.436
30.539,29.439
30.454,29.462
30.37,29.514
30.286,29.607
30.202,29.751
30.119,29.957
30.036,30.235
29.953,30.593
29.871,31.036
29.79,31.565
29.71,32.178
29.629,32.867
29.55,33.623
29.472,34.428
29.394,35.265
29.317,36.115
29.242,36.958
29.169,37.774
29.1,38.545
29.033,39.255
28.968,39.89
28.904,40.443
28.84,40.906
28.777,41.278
28.715,41.561
28.654,41.758
28.594,41.874
28.536,41.916
28.481,41.891
28.429,41.808
28.379,41.677
28.333,41.507
28.289,41.309
28.249,41.091
28.212,40.862
28.181,40.63
28.153,40.398
28.129,40.172
28.108,39.955
28.089,39.75
28.073,39.557
28.06,39.377
28.05,39.209
28.046,39.053
28.051,38.906
28.067,38.767
28.102,38.635
28.164,38.508
28.263,38.384
28.413,38.262
28.624,38.139
28.906,38.015
29.267,37.888
29.713,37.758
30.246,37.623
30.866,37.485
31.568,37.344
32.343,37.199
33.181,37.052
34.066,36.902
34.983,36.752
35.914,36.604
36.84,36.459
37.744,36.32
38.609,36.19
39.419,36.07
40.163,35.961
40.833,35.864
41.42,35.778
41.92,35.705
42.333,35.642
42.657,35.591
42.897,35.551
43.058,35.52
43.145,35.499
43.166,35.486
43.127,35.478
43.037,35.476
42.905,35.477
42.737,35.479
42.541,35.483
42.326,35.485
42.097,35.486
41.862,35.483
41.625,35.478
41.389,35.468
41.158,35.453
40.932,35.433
40.714,35.406
40.503,35.372
40.299,35.334
40.099,35.289
39.904,35.239
39.711,35.184
39.521,35.123
39.332,35.057
39.143,34.987
38.955,34.912
38.766,34.832
38.577,34.747
38.387,34.659
38.195,34.569
38,34.476
37.804,34.38
37.608,34.283
37.411,34.184
37.215,34.084
37.022,33.982
36.833,33.881
36.649,33.779
36.472,33.677
36.302,33.577
36.139,33.478
35.983,33.38
35.833,33.283
35.69,33.189
35.552,33.095
35.421,33.002
35.295,32.91
35.175,32.818
35.061,32.728
34.952,32.638
34.849,32.549
34.751,32.462
34.656,32.377
34.564,32.293
34.476,32.21
34.39,32.128
34.307,32.047
34.227,31.968
34.148,31.889
34.071,31.811
33.996,31.735
33.921,31.661
33.846,31.589
33.769,31.518
33.688,31.448
33.603,31.378
33.513,31.309
33.419,31.24
33.321,31.17
33.22,31.101
33.117,31.033
33.012,30.965
32.907,30.899
32.802,30.835
32.696,30.774
32.593,30.715
32.492,30.658
32.396,30.602
32.303,30.549
32.214,30.497
32.13,30.446
32.049,30.396
31.97,30.346
31.892,30.297
31.815,30.248
31.735,30.2
31.654,30.153
31.569,30.105
31.48,30.058
31.388,30.011
31.293,29.964
31.195,29.917
31.097,29.87
30.998,29.824
30.901,29.779
30.805,29.735
30.712,29.693
30.623,29.651
30.539,29.609
30.458,29.565
30.38,29.521
30.304,29.477
30.229,29.436
30.155,29.399
30.08,29.368
30.003,29.344
29.926,29.33
29.847,29.327
29.768,29.338
29.689,29.371
29.61,29.431
29.532,29.53
29.458,29.677
29.387,29.882
29.321,30.157
29.259,30.508
29.201,30.942
29.148,31.459
29.099,32.06
29.055,32.737
29.013,33.481
28.973,34.276
28.934,35.107
28.897,35.952
28.86,36.795
28.823,37.615
28.785,38.393
28.748,39.114
28.709,39.766
28.671,40.337
28.632,40.822
28.591,41.214
28.551,41.514
28.511,41.725
28.471,41.85
28.433,41.898
28.397,41.877
28.366,41.797
28.34,41.669
28.321,41.503
28.313,41.31
28.317,41.097
28.338,40.875
28.383,40.65
28.462,40.425
28.582,40.206
28.755,39.996
28.99,39.798
29.298,39.612
29.687,39.438
30.161,39.276
30.723,39.126
31.371,38.985
32.101,38.854
32.902,38.731
33.763,38.612
34.667,38.497
35.596,38.384
36.535,38.271
37.467,38.155
38.375,38.036
39.245,37.912
40.063,37.784
40.816,37.652
41.495,37.516
42.092,37.376
42.602,37.235
43.024,37.093
43.358,36.951
43.605,36.812
43.77,36.676
43.86,36.545
43.882,36.422
43.844,36.306
43.753,36.199
43.618,36.103
43.449,36.016
43.253,35.941
43.038,35.875
42.812,35.819
42.579,35.771
42.345,35.731
42.114,35.7
41.889,35.676
41.67,35.658
41.459,35.645
41.255,35.636
41.058,35.63
40.868,35.626
40.683,35.624
40.501,35.623
40.321,35.622
40.142,35.621
39.962,35.618
39.781,35.611
39.598,35.599
39.412,35.582
39.223,35.558
39.03,35.527
38.835,35.489
38.637,35.444
38.436,35.392
38.232,35.333
38.028,35.268
37.823,35.198
37.621,35.123
37.42,35.045
37.223,34.965
37.029,34.883
36.841,34.801
36.659,34.716
36.484,34.629
36.317,34.54
36.158,34.45
36.007,34.358
35.865,34.266
35.732,34.174
35.607,34.083
35.489,33.994
35.377,33.909
35.273,33.826
35.175,33.745
35.083,33.666
34.997,33.589
34.916,33.513
34.841,33.437
34.771,33.361
34.704,33.286
34.64,33.21
34.576,33.134
34.509,33.058
34.44,32.983
34.368,32.907
34.292,32.83
34.213,32.754
34.13,32.678
34.044,32.603
33.956,32.529
33.865,32.458
33.772,32.388
33.676,32.322
33.581,32.259
33.491,32.198
33.407,32.139
33.328,32.082
33.253,32.025
33.177,31.969
33.1,31.913
33.018,31.858
32.932,31.802
32.839,31.747
32.74,31.693
32.635,31.638
32.524,31.584
32.409,31.53
32.291,31.474
32.171,31.418
32.049,31.361
31.929,31.304
31.808,31.247
31.688,31.19
31.568,31.135
31.45,31.082
31.335,31.031
31.224,30.982
31.119,30.936
31.02,30.892
30.928,30.849
30.844,30.805
30.766,30.762
30.693,30.719
30.624,30.676
30.558,30.634
30.494,30.593
30.431,30.555
30.369,30.52
30.309,30.487
30.249,30.458
30.188,30.432
30.128,30.408
30.066,30.386
30.005,30.365
29.942,30.346
29.881,30.328
29.822,30.313
29.766,30.303
29.712,30.297
29.659,30.299
29.608,30.313
29.557,30.345
29.506,30.403
29.456,30.496
29.405,30.636
29.355,30.835
29.306,31.102
29.258,31.446
29.212,31.873
29.166,32.382
29.121,32.971
29.076,33.632
29.032,34.352
28.988,35.118
28.945,35.913
28.903,36.719
28.863,37.517
28.825,38.288
28.79,39.016
28.759,39.684
28.732,40.283
28.711,40.802
28.7,41.236
28.703,41.583
28.723,41.842
28.767,42.017
28.841,42.113
28.955,42.136
29.12,42.094
29.346,41.998
29.644,41.856
30.025,41.68
30.496,41.479
31.065,41.263
31.733,41.039
32.498,40.815
33.353,40.595
34.288,40.383
35.287,40.181
36.333,39.991
37.406,39.812
38.485,39.643
39.549,39.483
40.577,39.332
41.552,39.187
42.457,39.047
43.278,38.91
44.006,38.774
44.637,38.64
45.168,38.506
45.602,38.371
45.942,38.238
46.193,38.105
46.36,37.973
46.451,37.841
46.475,37.709
46.439,37.577
46.354,37.446
46.227,37.315
46.067,37.184
45.882,37.055
45.677,36.929
45.46,36.805
45.235,36.686
45.006,36.572
44.778,36.464
44.553,36.362
44.335,36.267
44.124,36.179
43.921,36.099
43.724,36.028
43.534,35.965
43.348,35.909
43.166,35.861
42.984,35.821
42.803,35.788
42.62,35.76
42.435,35.738
42.248,35.721
42.058,35.708
41.865,35.696
41.669,35.687
41.471,35.679
41.272,35.669
41.072,35.657
40.871,35.642
40.669,35.623
40.466,35.601
40.262,35.572
40.059,35.536
39.858,35.495
39.66,35.448
39.466,35.394
39.278,35.334
39.097,35.269
38.926,35.199
38.764,35.126
38.611,35.05
38.467,34.972
38.332,34.895
38.206,34.818
38.087,34.741
37.977,34.666
37.873,34.591
37.776,34.518
37.686,34.445
37.604,34.372
37.527,34.3
37.455,34.228
37.387,34.157
37.324,34.087
37.262,34.017
37.202,33.947
37.142,33.877
37.082,33.805
37.02,33.732
36.957,33.659
36.891,33.585
36.822,33.51
36.749,33.435
36.671,33.359
36.588,33.283
36.499,33.207
36.404,33.129
36.303,33.052
36.195,32.975
36.082,32.9
35.965,32.827
35.844,32.756
35.718,32.688
35.59,32.623
35.458,32.56
35.323,32.5
35.186,32.441
35.047,32.385
34.906,32.33
34.764,32.275
34.623,32.22
34.481,32.167
34.34,32.115
34.2,32.062
34.059,32.01
33.92,31.957
33.784,31.905
33.652,31.852
33.525,31.798
33.401,31.742
33.281,31.684
33.165,31.625
33.053,31.567
32.942,31.513
32.833,31.462
32.724,31.414
32.615,31.368
32.506,31.325
32.398,31.284
32.289,31.243
32.181,31.2
32.074,31.157
31.969,31.113
31.867,31.067
31.766,31.021
31.668,30.975
31.571,30.931
31.476,30.888
31.384,30.846
31.294,30.805
31.208,30.766
31.124,30.729
31.043,30.696
30.964,30.667
30.887,30.645
30.813,30.63
30.739,30.622
30.667,30.625
30.597,30.641
30.529,30.674
30.463,30.73
30.398,30.817
30.335,30.944
30.272,31.121
30.211,31.355
30.15,31.653
30.089,32.023
30.029,32.465
29.97,32.979
29.912,33.559
29.858,34.197
29.806,34.88
29.76,35.596
29.722,36.327
29.694,37.056
29.68,37.766
29.685,38.441
29.713,39.066
29.773,39.63
29.874,40.122
30.026,40.536
30.238,40.869
30.521,41.12
30.883,41.292
31.331,41.39
31.87,41.422
32.501,41.395
33.22,41.317
34.019,41.197
34.888,41.043
35.811,40.864
36.772,40.667
37.752,40.457
38.732,40.242
39.692,40.026
40.615,39.813
41.486,39.607
42.291,39.411
43.017,39.225
43.656,39.05
44.203,38.885
44.657,38.73
45.018,38.583
45.289,38.443
45.477,38.308
45.591,38.177
45.647,38.049
45.653,37.922
45.617,37.795
45.545,37.668
45.442,37.539
45.311,37.409
45.155,37.278
44.978,37.147
44.782,37.017
44.572,36.888
44.35,36.76
44.121,36.634
43.889,36.511
43.657,36.39
43.427,36.272
43.2,36.16
42.978,36.052
42.762,35.95
42.551,35.852
42.345,35.76
42.143,35.674
41.944,35.593
41.748,35.518
41.554,35.448
41.362,35.385
41.171,35.327
40.981,35.276
40.793,35.231
40.607,35.19
40.422,35.153
40.239,35.12
40.055,35.088
39.872,35.057
39.688,35.026
39.506,34.994
39.326,34.963
39.149,34.933
38.977,34.904
38.809,34.876
38.647,34.846
38.493,34.815
38.347,34.78
38.209,34.741
38.078,34.698
37.954,34.653
37.839,34.604
37.731,34.551
37.631,34.493
37.539,34.432
37.454,34.367
37.376,34.298
37.308,34.225
37.247,34.148
37.193,34.069
37.144,33.989
37.097,33.909
37.051,33.829
37.003,33.749
36.953,33.67
36.898,33.592
36.839,33.515
36.776,33.439
36.709,33.366
36.637,33.295
36.561,33.226
36.479,33.16
36.392,33.095
36.299,33.033
36.2,32.971
36.095,32.91
35.984,32.848
35.867,32.786
35.747,32.724
35.623,32.661
35.496,32.598
35.368,32.535
35.239,32.471
35.111,32.407
34.983,32.344
34.856,32.28
34.731,32.216
34.606,32.151
34.483,32.087
34.363,32.025
34.246,31.964
34.131,31.906
34.017,31.851
33.905,31.798
33.794,31.746
33.684,31.692
33.578,31.637
33.479,31.58
33.389,31.523
33.308,31.465
33.231,31.41
33.157,31.356
33.081,31.305
32.999,31.257
32.91,31.212
32.812,31.171
32.704,31.132
32.586,31.095
32.459,31.059
32.326,31.025
32.19,30.992
32.052,30.961
31.916,30.931
31.782,30.903
31.653,30.877
31.53,30.851
31.414,30.826
31.305,30.801
31.203,30.775
31.109,30.747
31.023,30.718
30.945,30.686
30.874,30.651
30.808,30.613
30.747,30.574
30.69,30.533
30.635,30.492
30.583,30.453
30.532,30.417
30.479,30.385
30.426,30.36
30.372,30.342
30.317,30.334
30.261,30.336
30.203,30.351
30.145,30.383
30.087,30.436
30.03,30.517
29.973,30.635
29.917,30.797
29.862,31.012
29.808,31.286
29.756,31.626
29.704,32.034
29.653,32.511
29.603,33.054
29.556,33.657
29.512,34.309
29.475,34.999
29.447,35.711
29.432,36.429
29.435,37.139
29.466,37.823
29.534,38.466
29.649,39.057
29.825,39.583
30.073,40.039
30.404,40.418
30.826,40.718
31.344,40.94
31.959,41.087
32.667,41.165
33.463,41.178
34.334,41.135
35.268,41.046
36.246,40.918
37.251,40.762
38.262,40.585
39.26,40.395
40.226,40.199
41.142,40.002
41.991,39.807
42.759,39.617
43.435,39.435
44.012,39.262
44.485,39.097
44.853,38.942
45.119,38.795
45.287,38.657
45.367,38.526
45.368,38.4
45.302,38.277
45.181,38.156
45.016,38.037
44.819,37.917
44.599,37.796
44.367,37.675
44.131,37.552
43.897,37.428
43.67,37.302
43.455,37.175
43.252,37.049
43.062,36.924
42.885,36.8
42.719,36.679
42.562,36.562
42.41,36.449
42.263,36.339
42.116,36.235
41.969,36.134
41.819,36.039
41.665,35.948
41.508,35.863
41.347,35.785
41.18,35.718
41.008,35.662
40.831,35.614
40.649,35.572
40.464,35.535
40.278,35.501
40.091,35.467
39.904,35.433
39.72,35.398
39.538,35.361
39.361,35.322
39.189,35.279
39.024,35.234
38.866,35.187
38.717,35.137
38.577,35.084
38.447,35.029
38.326,34.972
38.216,34.913
38.115,34.852
38.022,34.789
37.936,34.725
37.856,34.661
37.781,34.595
37.71,34.529
37.643,34.464
37.579,34.399
37.518,34.335
37.46,34.272
37.403,34.209
37.348,34.145
37.294,34.081
37.24,34.016
37.186,33.949
37.13,33.883
37.071,33.817
37.009,33.751
36.944,33.685
36.877,33.619
36.807,33.554
36.736,33.488
36.662,33.42
36.586,33.352
36.507,33.284
36.424,33.215
36.337,33.146
36.244,33.078
36.145,33.011
36.041,32.947
35.933,32.884
35.821,32.821
35.704,32.758
35.584,32.696
35.462,32.633
35.336,32.57
35.208,32.506
35.078,32.44
34.945,32.37
34.811,32.296
34.676,32.218
34.541,32.139
34.409,32.06
34.279,31.985
34.154,31.913
34.035,31.847
33.92,31.787
33.809,31.733
33.701,31.685
33.595,31.643
33.49,31.605
33.387,31.57
33.284,31.536
33.181,31.503
33.078,31.471
32.976,31.437
32.874,31.402
32.771,31.364
32.669,31.325
32.566,31.285
32.464,31.246
32.362,31.206
32.259,31.168
32.157,31.13
32.056,31.092
31.956,31.054
31.859,31.016
31.762,30.978
31.666,30.939
31.57,30.899
31.474,30.861
31.379,30.825
31.286,30.791
31.194,30.759
31.104,30.729
31.017,30.7
30.932,30.673
30.849,30.646
30.769,30.619
30.692,30.591
30.618,30.563
30.547,30.535
30.478,30.507
30.412,30.483
30.348,30.462
30.286,30.446
30.225,30.435
30.165,30.433
30.105,30.442
30.045,30.463
29.982,30.502
29.92,30.563
29.858,30.657
29.797,30.793
29.738,30.982
29.679,31.234
29.621,31.556
29.565,31.953
29.511,32.427
29.461,32.977
29.415,33.597
29.376,34.279
29.343,35.009
29.319,35.771
29.306,36.55
29.307,37.326
29.326,38.08
29.372,38.797
29.454,39.46
29.584,40.058
29.772,40.581
30.032,41.024
30.372,41.382
30.8,41.655
31.321,41.846
31.934,41.96
32.636,42.003
33.418,41.984
34.268,41.911
35.171,41.794
36.111,41.641
37.07,41.461
38.027,41.264
38.965,41.058
39.867,40.847
40.716,40.637
41.498,40.432
42.199,40.236
42.811,40.05
43.328,39.874
43.747,39.71
44.069,39.555
44.299,39.411
44.44,39.274
44.502,39.144
44.495,39.019
44.428,38.897
44.312,38.776
44.158,38.656
43.977,38.535
43.776,38.413
43.564,38.289
43.346,38.163
43.128,38.035
42.913,37.906
42.703,37.775
42.5,37.644
42.305,37.513
42.119,37.381
41.939,37.251
41.763,37.124
41.591,37
41.422,36.882
41.255,36.771
41.091,36.667
40.93,36.571
40.773,36.483
40.62,36.403
40.47,36.331
40.32,36.265
40.17,36.205
40.019,36.151
39.865,36.102
39.707,36.058
39.546,36.017
39.382,35.98
39.215,35.945
39.047,35.911
38.88,35.877
38.714,35.843
38.551,35.807
38.391,35.77
38.235,35.732
38.085,35.692
37.942,35.651
37.806,35.607
37.677,35.561
37.556,35.512
37.443,35.461
37.338,35.406
37.243,35.348
37.156,35.287
37.078,35.224
37.006,35.158
36.941,35.091
36.88,35.022
36.824,34.951
36.771,34.878
36.719,34.803
36.668,34.725
36.618,34.646
36.568,34.564
36.517,34.482
36.464,34.398
36.409,34.314
36.352,34.229
36.291,34.144
36.225,34.059
36.154,33.974
36.076,33.889
35.992,33.806
35.901,33.725
35.805,33.646
35.703,33.567
35.596,33.487
35.484,33.408
35.369,33.328
35.251,33.247
35.131,33.165
35.009,33.085
34.887,33.005
34.764,32.926
34.643,32.85
34.521,32.777
34.401,32.707
34.281,32.639
34.162,32.573
34.046,32.51
33.931,32.449
33.817,32.388
33.703,32.327
33.591,32.267
33.48,32.207
33.368,32.149
33.257,32.091
33.144,32.034
33.03,31.978
32.914,31.924
32.798,31.87
32.68,31.817
32.564,31.766
32.448,31.716
32.335,31.668
32.227,31.621
32.123,31.577
32.025,31.534
31.932,31.491
31.844,31.448
31.76,31.406
31.68,31.364
31.602,31.321
31.526,31.279
31.46,31.237
31.411,31.196
31.378,31.156
31.358,31.118
31.343,31.082
31.327,31.048
31.305,31.016
31.272,30.983
31.226,30.951
31.166,30.918
31.092,30.885
31.005,30.852
30.908,30.819
30.803,30.787
30.693,30.756
30.579,30.729
30.463,30.706
30.348,30.691
30.235,30.684
30.125,30.687
30.018,30.702
29.916,30.734
29.819,30.789
29.729,30.876
29.646,31.004
29.57,31.182
29.5,31.421
29.436,31.729
29.38,32.11
29.33,32.566
29.286,33.096
29.248,33.696
29.214,34.357
29.185,35.067
29.159,35.812
29.137,36.576
29.116,37.34
29.096,38.089
29.075,38.805
29.053,39.475
29.031,40.086
29.009,40.627
28.989,41.092
28.972,41.478
28.961,41.781
28.957,42.003
28.963,42.149
28.985,42.224
29.028,42.235
29.103,42.189
29.219,42.095
29.388,41.963
29.621,41.801
29.93,41.618
30.321,41.422
30.802,41.219
31.377,41.015
32.044,40.812
32.8,40.614
33.635,40.424
34.536,40.243
35.49,40.072
36.478,39.91
37.48,39.756
38.476,39.61
39.447,39.47
40.375,39.336
41.241,39.204
42.032,39.074
42.734,38.947
43.339,38.821
43.842,38.693
44.241,38.562
44.539,38.427
44.739,38.288
44.848,38.146
44.878,38.002
44.838,37.857
44.74,37.713
44.595,37.57
44.413,37.43
44.206,37.292
43.982,37.16
43.749,37.033
43.513,36.914
43.277,36.801
43.044,36.697
42.819,36.602
42.603,36.515
42.397,36.436
42.201,36.365
42.015,36.301
41.837,36.244
41.669,36.193
41.508,36.147
41.353,36.104
41.201,36.065
41.051,36.028
40.899,35.992
40.744,35.959
40.585,35.926
40.419,35.895
40.247,35.863
40.07,35.831
39.889,35.799
39.706,35.766
39.523,35.731
39.34,35.693
39.16,35.652
38.983,35.606
38.81,35.556
38.641,35.5
38.476,35.441
38.316,35.377
38.159,35.31
38.008,35.239
37.864,35.165
37.728,35.089
37.599,35.011
37.477,34.931
37.364,34.85
37.259,34.77
37.162,34.69
37.07,34.61
36.982,34.532
36.899,34.455
36.818,34.38
36.74,34.306
36.664,34.234
36.589,34.161
36.515,34.089
36.441,34.015
36.368,33.94
36.295,33.863
36.222,33.784
36.148,33.704
36.074,33.622
35.999,33.539
35.924,33.456
35.848,33.373
35.771,33.291
35.693,33.211
35.613,33.134
35.531,33.06
35.447,32.988
35.361,32.918
35.271,32.848
35.179,32.78
35.084,32.712
34.986,32.646
34.887,32.581
34.786,32.518
34.684,32.458
34.581,32.399
34.476,32.342
34.37,32.285
34.261,32.229
34.151,32.173
34.039,32.119
33.924,32.064
33.807,32.011
33.689,31.959
33.571,31.908
33.453,31.859
33.337,31.812
33.223,31.768
33.112,31.725
33.003,31.683
32.898,31.641
32.795,31.599
32.696,31.556
32.598,31.513
32.503,31.468
32.408,31.422
32.314,31.377
32.218,31.332
32.121,31.288
32.021,31.244
31.92,31.202
31.818,31.164
31.719,31.129
31.624,31.098
31.535,31.072
31.45,31.052
31.37,31.038
31.294,31.035
31.221,31.043
31.15,31.068
31.08,31.114
31.01,31.19
30.94,31.306
30.869,31.472
30.796,31.697
30.722,31.991
30.646,32.361
30.57,32.811
30.493,33.341
30.418,33.947
30.344,34.62
30.272,35.348
30.204,36.117
30.138,36.91
30.076,37.709
30.015,38.496
29.956,39.253
29.899,39.964
29.843,40.614
29.786,41.192
29.729,41.69
29.671,42.101
29.612,42.425
29.556,42.663
29.501,42.818
29.448,42.897
29.398,42.908
29.35,42.859
29.306,42.761
29.265,42.623
29.226,42.454
29.19,42.263
29.156,42.061
29.124,41.852
29.093,41.642
29.065,41.437
29.038,41.239
29.013,41.05
28.991,40.872
28.974,40.705
28.964,40.548
28.962,40.4
28.971,40.259
28.994,40.124
29.037,39.993
29.106,39.868
29.209,39.751
29.354,39.638
29.551,39.528
29.81,39.417
30.14,39.304
30.547,39.186
31.036,39.06
31.609,38.926
32.261,38.787
32.988,38.643
33.779,38.494
34.623,38.344
35.504,38.193
36.407,38.045
37.315,37.901
38.209,37.762
39.074,37.631
39.893,37.508
40.651,37.395
41.339,37.293
41.947,37.201
42.469,37.119
42.903,37.048
43.248,36.986
43.505,36.932
43.68,36.887
43.779,36.849
43.809,36.817
43.778,36.791
43.696,36.768
43.573,36.749
43.419,36.733
43.241,36.718
43.048,36.704
42.846,36.69
42.641,36.676
42.437,36.658
42.238,36.638
42.046,36.615
41.862,36.587
41.686,36.554
41.517,36.514
41.354,36.47
41.194,36.42
41.035,36.365
40.873,36.304
40.708,36.237
40.538,36.166
40.362,36.091
40.18,36.012
39.992,35.931
39.8,35.849
39.603,35.766
39.405,35.684
39.205,35.601
39.006,35.52
38.808,35.44
38.612,35.36
38.42,35.281
38.234,35.202
38.053,35.123
37.878,35.043
37.71,34.963
37.548,34.881
37.395,34.798
37.25,34.714
37.112,34.627
36.981,34.539
36.856,34.448
36.738,34.358
36.628,34.266
36.523,34.174
36.425,34.083
36.331,33.992
36.242,33.904
36.156,33.818
36.072,33.733
35.989,33.65
35.908,33.57
35.828,33.491
35.75,33.414
35.674,33.339
35.599,33.266
35.525,33.194
35.453,33.123
35.383,33.053
35.316,32.985
35.252,32.919
35.189,32.855
35.126,32.791
35.061,32.73
34.994,32.67
34.923,32.611
34.848,32.551
34.767,32.492
34.681,32.433
34.591,32.373
34.496,32.312
34.398,32.252
34.296,32.192
34.189,32.132
34.08,32.071
33.967,32.011
33.853,31.952
33.737,31.893
33.62,31.833
33.504,31.774
33.39,31.716
33.278,31.658
33.168,31.603
33.06,31.55
32.955,31.501
32.853,31.456
32.753,31.415
32.656,31.378
32.562,31.346
32.468,31.321
32.377,31.302
32.287,31.295
32.196,31.303
32.103,31.336
32.008,31.402
31.912,31.512
31.815,31.68
31.719,31.915
31.626,32.229
31.535,32.627
31.449,33.114
31.364,33.69
31.274,34.348
31.178,35.081
31.077,35.873
30.972,36.71
30.868,37.571
30.766,38.437
30.67,39.288
30.579,40.104
30.497,40.869
30.422,41.569
30.354,42.193
30.294,42.732
30.238,43.184
30.186,43.545
30.137,43.818
30.089,44.005
30.043,44.114
29.997,44.154
29.952,44.133
29.906,44.063
29.859,43.952
29.812,43.81
29.764,43.647
29.715,43.469
29.667,43.284
29.619,43.097
29.574,42.912
29.53,42.732
29.488,42.56
29.447,42.396
29.407,42.24
29.367,42.092
29.326,41.952
29.284,41.818
29.241,41.689
29.198,41.565
29.154,41.442
29.112,41.318
29.072,41.191
29.037,41.059
29.01,40.924
28.992,40.784
28.988,40.64
29.002,40.492
29.039,40.343
29.106,40.193
29.21,40.044
29.358,39.894
29.557,39.747
29.813,39.603
30.133,39.464
30.524,39.331
30.988,39.203
31.528,39.081
32.141,38.965
32.822,38.856
33.562,38.753
34.35,38.659
35.171,38.572
36.011,38.492
36.851,38.42
37.676,38.356
38.471,38.301
39.222,38.253
39.918,38.213
40.549,38.18
41.109,38.156
41.593,38.138
42,38.125
42.33,38.114
42.586,38.107
42.77,38.101
42.889,38.095
42.948,38.088
42.953,38.079
42.91,38.066
42.826,38.05
42.708,38.028
42.562,38.001
42.396,37.967
42.215,37.928
42.024,37.882
41.827,37.829
41.629,37.771
41.432,37.706
41.237,37.635
41.046,37.558
40.859,37.475
40.674,37.385
40.491,37.29
40.311,37.191
40.134,37.087
39.959,36.979
39.786,36.88
39.613,36.797
39.441,36.733
39.268,36.683
39.094,36.642
38.918,36.605
38.74,36.564
38.56,36.515
38.378,36.453
38.193,36.373
38.006,36.275
37.818,36.158
37.63,36.025
37.444,35.877
37.261,35.718
37.083,35.551
36.912,35.38
36.746,35.208
36.589,35.039
36.441,34.874
36.302,34.716
36.172,34.566
36.052,34.427
35.942,34.299
35.842,34.181
35.751,34.074
35.668,33.976
35.592,33.886
35.523,33.802
35.457,33.723
35.397,33.645
35.339,33.568
35.284,33.492
35.23,33.417
35.176,33.341
35.123,33.265
35.069,33.189
35.015,33.112
34.958,33.034
34.899,32.956
34.836,32.877
34.771,32.797
34.703,32.717
34.632,32.636
34.557,32.556
34.478,32.475
34.396,32.396
34.312,32.317
34.225,32.239
34.137,32.162
34.046,32.087
33.954,32.013
33.861,31.941
33.765,31.871
33.667,31.802
33.568,31.735
33.467,31.67
33.366,31.609
33.266,31.552
33.166,31.499
33.068,31.45
32.971,31.405
32.876,31.364
32.781,31.325
32.685,31.288
32.588,31.256
32.49,31.23
32.391,31.215
32.29,31.218
32.187,31.247
32.083,31.314
31.978,31.43
31.873,31.606
31.771,31.852
31.672,32.179
31.577,32.593
31.487,33.096
31.403,33.685
31.324,34.354
31.249,35.09
31.18,35.88
31.113,36.705
31.048,37.547
30.984,38.387
30.92,39.205
30.857,39.984
30.793,40.708
30.729,41.362
30.667,41.938
30.606,42.43
30.548,42.835
30.49,43.152
30.432,43.384
30.375,43.537
30.319,43.618
30.264,43.635
30.21,43.597
30.154,43.515
30.099,43.397
30.045,43.253
29.99,43.09
29.936,42.915
29.884,42.734
29.832,42.553
29.783,42.376
29.736,42.205
29.691,42.043
29.646,41.89
29.602,41.747
29.56,41.612
29.519,41.483
29.48,41.361
29.441,41.241
29.404,41.124
29.369,41.008
29.339,40.892
29.314,40.775
29.298,40.658
29.293,40.539
29.306,40.418
29.342,40.293
29.409,40.165
29.518,40.034
29.678,39.899
29.899,39.762
30.19,39.622
30.559,39.482
31.011,39.342
31.547,39.204
32.168,39.067
32.869,38.932
33.644,38.8
34.481,38.672
35.367,38.55
36.284,38.434
37.217,38.325
38.15,38.225
39.065,38.134
39.948,38.054
40.782,37.983
41.557,37.922
42.262,37.871
42.89,37.828
43.437,37.794
43.899,37.766
44.275,37.742
44.568,37.723
44.782,37.706
44.92,37.69
44.987,37.675
44.991,37.661
44.939,37.646
44.839,37.628
44.701,37.606
44.531,37.581
44.338,37.55
44.127,37.512
43.907,37.468
43.683,37.418
43.459,37.36
43.239,37.296
43.027,37.224
42.823,37.146
42.628,37.061
42.441,36.971
42.261,36.875
42.087,36.778
41.916,36.687
41.747,36.605
41.579,36.531
41.411,36.461
41.243,36.392
41.072,36.32
40.899,36.24
40.726,36.151
40.551,36.052
40.376,35.943
40.202,35.822
40.036,35.691
39.88,35.551
39.733,35.405
39.593,35.255
39.458,35.102
39.324,34.948
39.189,34.796
39.051,34.647
38.911,34.504
38.767,34.367
38.621,34.237
38.473,34.114
38.325,33.998
38.179,33.887
38.036,33.78
37.898,33.677
37.765,33.577
37.639,33.479
37.522,33.383
37.415,33.289
37.316,33.197
37.228,33.107
37.148,33.018
37.078,32.931
37.016,32.844
36.961,32.757
36.912,32.669
36.866,32.579
36.823,32.49
36.782,32.399
36.741,32.309
36.701,32.219
36.66,32.131
36.617,32.046
36.572,31.961
36.524,31.878
36.473,31.797
36.416,31.717
36.352,31.638
36.28,31.56
36.201,31.484
36.116,31.409
36.024,31.336
35.927,31.264
35.825,31.193
35.717,31.125
35.606,31.058
35.491,30.992
35.373,30.927
35.251,30.863
35.127,30.799
35.002,30.736
34.879,30.674
34.757,30.612
34.638,30.551
34.521,30.491
34.408,30.432
34.298,30.375
34.192,30.321
34.088,30.269
33.986,30.22
33.886,30.175
33.789,30.134
33.694,30.097
33.603,30.066
33.514,30.043
33.426,30.031
33.34,30.037
33.253,30.065
33.166,30.127
33.076,30.233
32.985,30.393
32.891,30.619
32.797,30.922
32.703,31.311
32.609,31.789
32.517,32.357
32.428,33.01
32.342,33.741
32.26,34.538
32.181,35.385
32.104,36.263
32.03,37.152
31.959,38.031
31.891,38.881
31.825,39.682
31.76,40.42
31.695,41.081
31.632,41.657
31.568,42.141
31.504,42.532
31.438,42.83
31.371,43.041
31.303,43.169
31.235,43.221
31.168,43.206
31.103,43.135
31.04,43.017
30.978,42.862
30.919,42.678
30.862,42.475
30.806,42.262
30.751,42.048
30.697,41.838
30.645,41.637
30.596,41.448
30.551,41.273
30.511,41.111
30.478,40.963
30.455,40.827
30.444,40.701
30.45,40.584
30.479,40.473
30.538,40.366
30.635,40.26
30.78,40.153
30.982,40.042
31.249,39.927
31.589,39.806
32.008,39.68
32.509,39.548
33.093,39.411
33.756,39.269
34.492,39.124
35.293,38.977
36.144,38.828
37.031,38.678
37.936,38.53
38.842,38.384
39.729,38.242
40.582,38.104
41.384,37.972
42.122,37.844
42.783,37.723
43.361,37.608
43.849,37.499
44.246,37.397
44.553,37.304
44.773,37.217
44.913,37.138
44.98,37.064
44.981,36.997
44.925,36.936
44.821,36.881
44.678,36.832
44.505,36.789
44.309,36.75
44.099,36.715
43.881,36.683
43.662,36.65
43.447,36.618
43.238,36.582
43.038,36.544
42.848,36.503
42.669,36.458
42.501,36.413
42.344,36.368
42.196,36.323
42.057,36.275
41.926,36.221
41.799,36.159
41.676,36.088
41.552,36.007
41.427,35.915
41.298,35.815
41.164,35.706
41.023,35.591
40.876,35.469
40.721,35.342
40.559,35.209
40.392,35.074
40.219,34.937
40.043,34.8
39.865,34.664
39.689,34.531
39.515,34.401
39.345,34.276
39.181,34.153
39.026,34.035
38.878,33.919
38.741,33.806
38.615,33.695
38.5,33.587
38.396,33.48
38.303,33.377
38.222,33.276
38.153,33.178
38.096,33.083
38.052,32.99
38.016,32.898
37.988,32.807
37.966,32.714
37.947,32.62
37.932,32.526
37.919,32.433
37.905,32.339
37.89,32.246
37.873,32.154
37.853,32.063
37.832,31.975
37.808,31.889
37.78,31.804
37.748,31.72
37.712,31.637
37.671,31.554
37.626,31.471
37.576,31.39
37.521,31.309
37.463,31.229
37.402,31.15
37.337,31.072
37.268,30.994
37.194,30.918
37.117,30.842
37.036,30.766
36.95,30.692
36.859,30.618
36.762,30.546
36.661,30.477
36.556,30.411
36.447,30.348
36.337,30.289
36.225,30.233
36.113,30.179
36.001,30.127
35.889,30.076
35.779,30.025
35.67,29.974
35.56,29.922
35.45,29.869
35.342,29.817
35.236,29.767
35.132,29.718
35.032,29.672
34.935,29.629
34.841,29.589
34.749,29.552
34.66,29.518
34.572,29.486
34.483,29.456
34.394,29.427
34.304,29.398
34.212,29.371
34.12,29.344
34.025,29.319
33.929,29.295
33.834,29.272
33.739,29.252
33.645,29.235
33.553,29.222
33.462,29.215
33.373,29.22
33.286,29.241
33.203,29.285
33.123,29.363
33.046,29.488
32.972,29.673
32.899,29.93
32.827,30.269
32.755,30.7
32.682,31.226
32.608,31.847
32.534,32.558
32.461,33.35
32.389,34.21
32.32,35.121
32.252,36.062
32.185,37.011
32.119,37.949
32.053,38.853
31.985,39.707
31.912,40.492
31.832,41.196
31.748,41.808
31.661,42.323
31.574,42.737
31.492,43.053
31.415,43.273
31.349,43.406
31.294,43.459
31.252,43.444
31.225,43.372
31.214,43.253
31.223,43.097
31.255,42.916
31.312,42.718
31.402,42.511
31.529,42.302
31.7,42.094
31.923,41.892
32.205,41.7
32.553,41.518
32.97,41.347
33.459,41.186
34.02,41.035
34.65,40.892
35.342,40.756
36.083,40.625
36.859,40.497
37.655,40.37
38.452,40.245
39.234,40.118
39.984,39.989
40.686,39.857
41.329,39.723
41.902,39.585
42.4,39.443
42.818,39.299
43.153,39.154
43.407,39.007
43.584,38.86
43.691,38.712
43.734,38.566
43.72,38.421
43.657,38.278
43.553,38.14
43.417,38.005
43.256,37.877
43.078,37.754
42.888,37.637
42.694,37.528
42.5,37.426
42.31,37.333
42.127,37.249
41.952,37.173
41.786,37.106
41.629,37.047
41.481,36.996
41.342,36.951
41.21,36.912
41.083,36.878
40.96,36.85
40.838,36.825
40.717,36.802
40.595,36.782
40.472,36.761
40.345,36.739
40.215,36.715
40.081,36.688
39.945,36.656
39.806,36.619
39.666,36.577
39.522,36.53
39.377,36.479
39.23,36.423
39.083,36.364
38.936,36.301
38.791,36.234
38.649,36.164
38.512,36.091
38.383,36.015
38.261,35.936
38.149,35.855
38.047,35.771
37.954,35.686
37.87,35.598
37.796,35.507
37.73,35.414
37.673,35.319
37.625,35.221
37.587,35.123
37.559,35.023
37.541,34.921
37.529,34.819
37.524,34.716
37.524,34.613
37.526,34.508
37.529,34.404
37.53,34.301
37.525,34.199
37.515,34.101
37.501,34.006
37.483,33.914
37.461,33.826
37.436,33.741
37.407,33.657
37.373,33.568
37.334,33.468
37.288,33.359
37.235,33.242
37.175,33.119
37.108,32.997
37.035,32.878
36.958,32.766
36.879,32.663
36.797,32.569
36.714,32.485
36.63,32.411
36.546,32.346
36.461,32.288
36.375,32.236
36.286,32.189
36.197,32.146
36.106,32.104
36.014,32.063
35.922,32.019
35.829,31.973
35.735,31.922
35.641,31.868
35.546,31.809
35.45,31.747
35.353,31.681
35.255,31.612
35.156,31.541
35.057,31.468
34.957,31.395
34.857,31.322
34.757,31.251
34.659,31.18
34.561,31.111
34.466,31.043
34.374,30.978
34.284,30.914
34.197,30.852
34.113,30.79
34.033,30.73
33.955,30.67
33.879,30.612
33.806,30.554
33.733,30.498
33.661,30.443
33.588,30.389
33.515,30.337
33.44,30.287
33.364,30.24
33.286,30.196
33.208,30.154
33.129,30.115
33.049,30.078
32.97,30.043
32.89,30.01
32.811,29.982
32.733,29.958
32.655,29.937
32.579,29.918
32.505,29.903
32.434,29.892
32.367,29.884
32.302,29.88
32.24,29.883
32.18,29.893
32.123,29.916
32.068,29.958
32.014,30.027
31.962,30.133
31.91,30.289
31.86,30.504
31.81,30.789
31.76,31.152
31.71,31.597
31.66,32.123
31.609,32.726
31.56,33.399
31.511,34.129
31.465,34.904
31.421,35.705
31.382,36.517
31.348,37.321
31.324,38.099
31.313,38.833
31.323,39.51
31.36,40.118
31.432,40.649
31.547,41.095
31.715,41.456
31.941,41.729
32.234,41.919
32.598,42.031
33.034,42.073
33.541,42.053
34.116,41.98
34.75,41.867
35.433,41.721
36.152,41.551
36.891,41.367
37.634,41.175
38.364,40.983
39.067,40.794
39.729,40.612
40.34,40.439
40.891,40.278
41.375,40.128
41.787,39.989
42.127,39.86
42.394,39.74
42.591,39.627
42.722,39.519
42.792,39.414
42.807,39.311
42.777,39.206
42.708,39.095
42.607,38.976
42.481,38.85
42.336,38.719
42.177,38.583
42.009,38.445
41.836,38.308
41.66,38.171
41.485,38.037
41.312,37.907
41.144,37.78
40.981,37.658
40.825,37.543
40.673,37.433
40.527,37.329
40.385,37.231
40.246,37.139
40.11,37.053
39.977,36.972
39.844,36.898
39.711,36.83
39.577,36.767
39.444,36.709
39.311,36.656
39.18,36.608
39.049,36.564
38.918,36.522
38.789,36.483
38.659,36.447
38.53,36.412
38.401,36.378
38.273,36.344
38.146,36.309
38.021,36.274
37.9,36.238
37.783,36.2
37.673,36.16
37.571,36.118
37.477,36.075
37.392,36.03
37.315,35.981
37.248,35.929
37.189,35.874
37.139,35.815
37.099,35.753
37.068,35.688
37.045,35.62
37.03,35.55
37.022,35.479
37.02,35.406
37.023,35.332
37.028,35.257
37.033,35.181
37.036,35.105
37.038,35.028
37.036,34.949
37.031,34.868
37.02,34.784
37.005,34.699
36.984,34.612
36.959,34.524
36.928,34.437
36.891,34.35
36.846,34.264
36.795,34.18
36.737,34.098
36.675,34.019
36.608,33.942
36.539,33.868
36.466,33.796
36.392,33.725
36.318,33.655
36.244,33.586
36.17,33.517
36.095,33.449
36.019,33.382
35.942,33.314
35.864,33.248
35.783,33.182
35.699,33.117
35.614,33.052
35.525,32.988
35.436,32.923
35.344,32.859
35.252,32.796
35.158,32.733
35.063,32.67
34.967,32.609
34.87,32.548
34.772,32.49
34.675,32.432
34.578,32.375
34.482,32.318
34.389,32.262
34.297,32.208
34.207,32.153
34.12,32.1
34.036,32.05
33.954,32.002
33.874,31.956
33.798,31.911
33.725,31.869
33.655,31.829
33.588,31.791
33.522,31.753
33.457,31.716
33.392,31.681
33.326,31.646
33.259,31.611
33.19,31.576
33.12,31.54
33.049,31.503
32.98,31.464
32.912,31.422
32.847,31.377
32.784,31.331
32.722,31.283
32.662,31.234
32.603,31.185
32.545,31.137
32.488,31.091
32.432,31.047
32.375,31.007
32.319,30.97
32.264,30.936
32.21,30.905
32.155,30.876
32.099,30.849
32.043,30.823
31.987,30.798
31.932,30.773
31.878,30.751
31.825,30.73
31.775,30.712
31.725,30.698
31.678,30.689
31.631,30.688
31.585,30.695
31.54,30.715
31.496,30.755
31.455,30.82
31.418,30.919
31.388,31.063
31.365,31.261
31.354,31.522
31.358,31.85
31.382,32.248
31.433,32.718
31.518,33.256
31.645,33.853
31.823,34.5
32.058,35.183
32.356,35.889
32.722,36.601
33.156,37.303
33.658,37.979
34.221,38.613
34.838,39.195
35.496,39.714
36.182,40.162
36.88,40.534
37.575,40.83
38.254,41.049
38.901,41.195
39.506,41.274
40.056,41.291
40.545,41.256
40.965,41.177
41.315,41.064
41.593,40.926
41.798,40.77
41.935,40.602
42.009,40.428
42.025,40.253
41.992,40.079
41.916,39.907
41.806,39.74
41.671,39.579
41.517,39.425
41.353,39.279
41.182,39.139
41.01,39.007
40.841,38.882
40.676,38.763
40.518,38.648
40.369,38.536
40.227,38.425
40.092,38.316
39.963,38.206
39.838,38.096
39.718,37.986
39.601,37.877
39.485,37.769
39.37,37.66
39.254,37.55
39.136,37.441
39.016,37.332
38.892,37.225
38.763,37.121
38.631,37.019
38.495,36.922
38.356,36.83
38.214,36.742
38.071,36.659
37.928,36.58
37.787,36.507
37.649,36.439
37.515,36.375
37.385,36.318
37.261,36.267
37.142,36.223
37.03,36.184
36.927,36.15
36.832,36.122
36.746,36.098
36.669,36.077
36.604,36.058
36.549,36.041
36.504,36.025
36.467,36.009
36.437,35.992
36.415,35.975
36.397,35.955
36.384,35.933
36.374,35.908
36.365,35.877
36.358,35.84
36.351,35.798
36.343,35.752
36.335,35.703
36.325,35.651
36.312,35.596
36.296,35.54
36.278,35.481
36.265,35.421
36.264,35.36
36.275,35.298
36.295,35.235
36.319,35.171
36.341,35.107
36.353,35.041
36.351,34.973
36.33,34.903
36.29,34.828
36.231,34.75
36.153,34.669
36.06,34.586
35.952,34.502
35.835,34.418
35.71,34.334
35.582,34.252
35.452,34.173
35.324,34.095
35.198,34.021
35.077,33.949
34.962,33.88
34.852,33.813
34.748,33.748
34.649,33.683
34.555,33.618
34.467,33.554
34.384,33.491
34.305,33.429
34.23,33.368
34.159,33.309
34.091,33.251
34.024,33.196
33.958,33.142
33.891,33.088
33.822,33.036
33.751,32.984
33.679,32.931
33.604,32.878
33.527,32.824
33.45,32.771
33.372,32.718
33.295,32.666
33.22,32.615
33.146,32.566
33.074,32.518
33.004,32.471
32.936,32.425
32.869,32.379
32.805,32.332
32.743,32.283
32.683,32.233
32.626,32.185
32.57,32.138
32.516,32.095
32.463,32.056
32.41,32.021
32.358,31.99
32.306,31.963
32.254,31.94
32.203,31.92
32.152,31.905
32.102,31.893
32.053,31.886
32.004,31.881
31.957,31.879
31.91,31.879
31.864,31.88
31.818,31.88
31.772,31.879
31.727,31.875
31.682,31.868
31.636,31.858
31.591,31.846
31.546,31.832
31.5,31.816
31.453,31.798
31.405,31.778
31.358,31.756
31.311,31.733
31.266,31.709
31.224,31.682
31.185,31.654
31.151,31.626
31.121,31.597
31.098,31.57
31.085,31.545
31.088,31.526
31.116,31.513
31.177,31.511
31.274,31.525
31.412,31.562
31.596,31.63
31.829,31.735
32.115,31.886
32.456,32.093
32.852,32.36
33.304,32.692
33.809,33.088
34.361,33.546
34.954,34.062
35.578,34.627
36.221,35.23
36.872,35.861
37.516,36.506
38.142,37.151
38.736,37.78
39.286,38.382
39.783,38.945
40.22,39.457
40.592,39.909
40.896,40.296
41.134,40.615
41.306,40.863
41.417,41.042
41.471,41.156
41.473,41.211
41.43,41.212
41.349,41.167
41.237,41.085
41.1,40.974
40.945,40.839
40.778,40.689
40.606,40.527
40.43,40.36
40.256,40.193
40.087,40.028
39.924,39.868
39.769,39.714
39.623,39.569
39.485,39.432
39.354,39.304
39.228,39.184
39.105,39.07
38.984,38.962
38.863,38.86
38.74,38.759
38.614,38.66
38.486,38.559
38.355,38.457
38.222,38.352
38.086,38.244
37.949,38.133
37.811,38.019
37.674,37.902
37.537,37.783
37.399,37.662
37.262,37.54
37.126,37.42
36.991,37.301
36.859,37.187
36.732,37.079
36.611,36.978
36.497,36.886
36.391,36.801
36.295,36.726
36.207,36.659
36.129,36.602
36.058,36.552
35.997,36.511
35.946,36.478
35.905,36.452
35.874,36.434
35.852,36.422
35.838,36.415
35.832,36.413
35.831,36.418
35.835,36.429
35.841,36.447
35.848,36.47
35.853,36.496
35.856,36.523
35.857,36.549
35.855,36.571
35.85,36.588
35.842,36.599
35.831,36.604
35.817,36.601
35.806,36.59
35.804,36.571
35.808,36.545
35.817,36.512
35.828,36.474
35.836,36.43
35.837,36.382
35.828,36.329
35.806,36.272
35.771,36.21
35.721,36.143
35.656,36.072
35.576,35.998
35.483,35.921
35.379,35.842
35.266,35.761
35.147,35.678
35.023,35.593
34.897,35.508
34.772,35.422
34.648,35.335
34.527,35.248
34.409,35.16
34.296,35.073
34.188,34.987
34.086,34.902
33.991,34.818
33.901,34.736
33.817,34.654
33.739,34.573
33.667,34.493
33.599,34.415
33.535,34.337
33.472,34.26
33.41,34.185
33.346,34.11
33.28,34.035
33.211,33.962
33.14,33.889
33.066,33.816
32.991,33.745
32.915,33.675
32.838,33.606
32.76,33.54
32.683,33.477
32.607,33.417
32.533,33.358
32.461,33.3
32.392,33.242
32.325,33.184
32.26,33.126
32.198,33.067
32.138,33.007
32.078,32.947
32.019,32.887
31.96,32.827
31.9,32.769
31.841,32.71
31.781,32.653
31.722,32.596
31.663,32.54
31.604,32.487
31.546,32.434
31.489,32.384
31.432,32.337
31.376,32.292
31.32,32.249
31.265,32.209
31.209,32.17
31.153,32.133
31.097,32.097
31.042,32.061
30.988,32.026
30.937,31.993
30.889,31.96
30.846,31.929
30.809,31.898
30.778,31.868
30.753,31.838
30.735,31.807
30.724,31.776
30.721,31.744
30.725,31.713
30.739,31.682
30.766,31.651
30.809,31.621
30.875,31.593
30.979,31.564
31.134,31.537
31.346,31.51
31.618,31.483
31.952,31.455
32.344,31.427
32.793,31.398
33.294,31.369
33.842,31.34
34.428,31.312
35.043,31.286
35.674,31.263
36.312,31.243
36.943,31.229
37.555,31.219
38.136,31.216
38.674,31.221
39.161,31.238
39.591,31.275
39.956,31.34
40.255,31.441
40.486,31.59
40.651,31.797
40.754,32.071
40.8,32.418
40.795,32.841
40.744,33.34
40.655,33.911
40.535,34.546
40.392,35.234
40.233,35.961
40.063,36.71
39.887,37.463
39.71,38.203
39.535,38.911
39.365,39.574
39.2,40.178
39.043,40.714
38.892,41.175
38.749,41.554
38.613,41.849
38.483,42.063
38.358,42.199
38.236,42.261
38.118,42.259
38.002,42.201
37.886,42.096
37.771,41.953
37.653,41.781
37.533,41.587
37.41,41.381
37.283,41.17
37.154,40.958
37.022,40.751
36.888,40.552
36.754,40.364
36.62,40.187
36.488,40.022
36.359,39.869
36.232,39.727
36.109,39.595
35.99,39.47
35.875,39.352
35.767,39.237
35.663,39.126
35.566,39.015
35.474,38.905
35.39,38.793
35.313,38.68
35.243,38.562
35.181,38.44
35.126,38.313
35.08,38.182
35.042,38.046
35.012,37.906
34.99,37.764
34.975,37.624
34.965,37.488
34.96,37.356
34.958,37.23
34.957,37.112
34.956,37.003
34.954,36.903
34.951,36.814
34.946,36.735
34.939,36.667
34.928,36.608
34.914,36.558
34.896,36.516
34.874,36.481
34.847,36.454
34.815,36.432
34.778,36.416
34.734,36.405
34.685,36.397
34.631,36.392
34.573,36.388
34.511,36.385
34.446,36.381
34.379,36.377
34.309,36.372
34.236,36.366
34.161,36.358
34.082,36.349
34.001,36.337
33.919,36.321
33.837,36.302
33.754,36.278
33.674,36.248
33.594,36.214
33.516,36.175
33.439,36.132
33.363,36.084
33.286,36.03
33.209,35.971
33.133,35.908
33.058,35.841
32.985,35.771
32.912,35.697
32.841,35.621
32.772,35.545
32.705,35.467
32.64,35.388
32.575,35.308
32.512,35.226
32.448,35.143
32.385,35.058
32.321,34.972
32.257,34.887
32.192,34.801
32.125,34.716
32.057,34.632
31.987,34.549
31.915,34.47
31.842,34.394
31.77,34.32
31.7,34.249
31.634,34.18
31.57,34.112
31.511,34.045
31.454,33.978
31.4,33.909
31.349,33.839
31.299,33.766
31.25,33.69
31.203,33.613
31.157,33.534
31.113,33.454
31.069,33.374
31.026,33.296
30.984,33.218
30.942,33.142
30.9,33.066
30.858,32.992
30.816,32.92
30.774,32.85
30.732,32.782
30.691,32.716
30.65,32.653
30.609,32.594
30.568,32.537
30.527,32.483
30.487,32.432
30.449,32.382
30.415,32.333
30.386,32.284
30.364,32.235
30.349,32.187
30.345,32.138
30.355,32.089
30.382,32.04
30.43,31.99
30.506,31.939
30.618,31.888
30.772,31.837
30.977,31.785
31.238,31.732
31.56,31.681
31.945,31.63
32.394,31.582
32.902,31.535
33.465,31.491
34.073,31.449
34.717,31.41
35.384,31.371
36.063,31.333
36.737,31.295
37.393,31.257
38.018,31.22
38.599,31.183
39.125,31.145
39.587,31.108
39.978,31.073
40.294,31.039
40.534,31.009
40.701,30.982
40.799,30.961
40.835,30.945
40.814,30.934
40.745,30.931
40.636,30.937
40.497,30.955
40.333,30.991
40.154,31.052
39.965,31.144
39.774,31.278
39.583,31.461
39.396,31.701
39.215,32.002
39.042,32.371
38.877,32.807
38.722,33.308
38.575,33.87
38.437,34.484
38.307,35.139
38.181,35.821
38.059,36.515
37.939,37.204
37.82,37.874
37.699,38.511
37.575,39.101
37.45,39.633
37.323,40.099
37.194,40.493
37.064,40.812
36.934,41.056
36.804,41.228
36.674,41.332
36.546,41.372
36.42,41.355
36.297,41.289
36.178,41.182
36.063,41.042
35.953,40.878
35.85,40.696
35.752,40.504
35.659,40.308
35.573,40.11
35.492,39.915
35.419,39.727
35.351,39.546
35.29,39.374
35.235,39.211
35.187,39.057
35.144,38.912
35.107,38.774
35.074,38.641
35.044,38.512
35.017,38.385
34.991,38.26
34.969,38.135
34.948,38.01
34.93,37.886
34.914,37.761
34.899,37.635
34.885,37.51
34.871,37.386
34.857,37.265
34.84,37.145
34.821,37.028
34.798,36.915
34.771,36.805
34.739,36.699
34.701,36.596
34.659,36.498
34.611,36.405
34.557,36.319
34.497,36.238
34.431,36.165
34.362,36.1
34.289,36.041
34.215,35.989
34.139,35.944
34.063,35.905
33.987,35.871
33.911,35.843
33.836,35.819
33.762,35.8
33.688,35.785
33.616,35.774
33.544,35.764
33.473,35.757
33.402,35.75
33.331,35.744
33.26,35.737
33.189,35.73
33.116,35.721
33.041,35.709
32.965,35.695
32.886,35.677
32.804,35.655
32.722,35.629
32.639,35.599
32.556,35.566
32.475,35.528
32.395,35.487
32.318,35.44
32.243,35.388
32.169,35.33
32.098,35.267
32.027,35.198
31.958,35.125
31.889,35.047
31.822,34.965
31.755,34.881
31.689,34.796
31.624,34.71
31.562,34.624
31.502,34.538
31.445,34.452
31.391,34.367
31.341,34.282
31.294,34.199
31.251,34.117
31.21,34.038
31.17,33.962
31.13,33.887
31.09,33.815
31.049,33.744
31.008,33.673
30.967,33.603
30.925,33.533
30.883,33.463
30.842,33.392
30.803,33.322
30.763,33.25
30.725,33.179
30.687,33.106
30.65,33.033
30.616,32.959
30.583,32.886
30.554,32.812
30.53,32.738
30.51,32.666
30.497,32.596
30.492,32.527
30.496,32.46
30.514,32.394
30.552,32.33
30.615,32.264
30.713,32.199
30.854,32.133
31.047,32.069
31.3,32.005
31.619,31.942
32.008,31.881
32.468,31.822
32.999,31.766
33.594,31.711
34.245,31.659
34.941,31.609
35.669,31.561
36.413,31.516
37.156,31.472
37.883,31.43
38.579,31.389
39.23,31.35
39.824,31.31
40.349,31.271
40.8,31.23
41.174,31.188
41.469,31.144
41.688,31.098
41.835,31.05
41.915,31.002
41.936,30.954
41.905,30.908
41.831,30.864
41.723,30.825
41.586,30.79
41.429,30.763
41.258,30.744
41.077,30.733
40.893,30.731
40.709,30.741
40.527,30.765
40.352,30.812
40.183,30.889
40.023,31.006
39.87,31.173
39.725,31.398
39.586,31.69
39.454,32.055
39.328,32.495
39.204,33.011
39.082,33.599
38.96,34.251
38.837,34.956
38.713,35.7
38.587,36.467
38.46,37.239
38.331,37.998
38.201,38.727
38.07,39.411
37.939,40.037
37.809,40.593
37.679,41.071
37.548,41.468
37.417,41.781
37.288,42.013
37.161,42.165
37.037,42.245
36.917,42.26
36.803,42.219
36.695,42.13
36.595,42.002
36.503,41.845
36.42,41.668
36.345,41.479
36.278,41.285
36.218,41.09
36.166,40.899
36.12,40.716
36.081,40.541
36.047,40.377
36.019,40.224
35.997,40.081
35.978,39.946
35.964,39.819
35.952,39.699
35.943,39.583
35.936,39.469
35.93,39.353
35.923,39.233
35.915,39.109
35.905,38.981
35.892,38.849
35.875,38.713
35.854,38.574
35.828,38.432
35.797,38.289
35.76,38.146
35.718,38.004
35.67,37.864
35.616,37.729
35.555,37.598
35.489,37.471
35.418,37.35
35.342,37.234
35.26,37.125
35.175,37.024
35.088,36.928
35.001,36.84
34.915,36.759
34.829,36.685
34.745,36.619
34.662,36.56
34.581,36.507
34.5,36.46
34.421,36.419
34.34,36.383
34.257,36.353
34.172,36.328
34.084,36.308
33.993,36.29
33.899,36.275
33.803,36.26
33.705,36.246
33.607,36.231
33.511,36.215
33.417,36.197
33.324,36.177
33.234,36.155
33.145,36.131
33.058,36.103
32.974,36.07
32.892,36.032
32.812,35.989
32.736,35.94
32.664,35.885
32.595,35.824
32.528,35.758
32.462,35.686
32.399,35.608
32.336,35.525
32.276,35.438
32.217,35.347
32.16,35.254
32.102,35.158
32.045,35.062
31.987,34.966
31.929,34.872
31.871,34.78
31.812,34.688
31.753,34.596
31.696,34.504
31.642,34.411
31.59,34.318
31.541,34.224
31.495,34.131
31.452,34.038
31.41,33.946
31.368,33.854
31.327,33.762
31.285,33.67
31.244,33.577
31.203,33.483
31.163,33.388
31.124,33.294
31.089,33.2
31.058,33.109
31.035,33.02
31.023,32.934
31.025,32.851
31.049,32.771
31.103,32.695
31.196,32.621
31.337,32.548
31.536,32.477
31.799,32.408
32.135,32.34
32.544,32.274
33.029,32.209
33.586,32.145
34.206,32.081
34.88,32.017
35.595,31.954
36.336,31.891
37.088,31.829
37.834,31.768
38.558,31.709
39.245,31.651
39.883,31.595
40.46,31.541
40.97,31.489
41.413,31.436
41.793,31.383
42.11,31.33
42.364,31.276
42.554,31.221
42.681,31.164
42.745,31.107
42.75,31.05
42.701,30.994
42.605,30.938
42.469,30.883
42.301,30.829
42.108,30.774
41.897,30.72
41.677,30.665
41.454,30.609
41.232,30.552
41.017,30.495
40.812,30.441
40.619,30.392
40.44,30.351
40.276,30.32
40.126,30.303
39.991,30.304
39.867,30.328
39.755,30.382
39.652,30.475
39.555,30.616
39.462,30.817
39.371,31.085
39.28,31.429
39.187,31.854
39.091,32.363
38.99,32.952
38.881,33.616
38.765,34.345
38.641,35.126
38.51,35.945
38.374,36.785
38.233,37.627
38.089,38.453
37.946,39.246
37.806,39.99
37.668,40.672
37.535,41.279
37.407,41.806
37.285,42.246
37.17,42.598
37.064,42.863
36.967,43.046
36.879,43.151
36.799,43.188
36.73,43.164
36.672,43.09
36.623,42.975
36.584,42.828
36.551,42.659
36.526,42.476
36.508,42.286
36.495,42.096
36.486,41.911
36.482,41.734
36.479,41.567
36.479,41.411
36.48,41.266
36.479,41.132
36.477,41.008
36.471,40.892
36.461,40.783
36.445,40.677
36.422,40.572
36.392,40.467
36.353,40.358
36.307,40.244
36.253,40.125
36.193,39.999
36.126,39.869
36.054,39.735
35.976,39.6
35.895,39.464
35.811,39.326
35.723,39.188
35.633,39.05
35.54,38.913
35.447,38.778
35.354,38.646
35.259,38.517
35.165,38.393
35.069,38.274
34.974,38.162
34.879,38.056
34.785,37.957
34.692,37.866
34.6,37.782
34.51,37.705
34.422,37.636
34.337,37.572
34.253,37.516
34.169,37.466
34.083,37.422
33.996,37.384
33.906,37.35
33.816,37.319
33.724,37.292
33.633,37.267
33.541,37.244
33.452,37.221
33.364,37.197
33.279,37.172
33.194,37.144
33.111,37.113
33.029,37.08
32.949,37.043
32.869,37.004
32.789,36.96
32.71,36.913
32.633,36.861
32.558,36.806
32.485,36.745
32.414,36.68
32.345,36.611
32.278,36.537
32.212,36.459
32.148,36.376
32.084,36.289
32.023,36.196
31.962,36.099
31.904,35.997
31.847,35.891
31.791,35.782
31.733,35.672
31.676,35.559
31.617,35.446
31.558,35.334
31.5,35.222
31.441,35.112
31.384,35.004
31.327,34.899
31.272,34.796
31.219,34.696
31.168,34.598
31.12,34.501
31.075,34.407
31.036,34.314
31.003,34.221
30.978,34.129
30.964,34.036
30.964,33.944
30.984,33.852
31.029,33.76
31.108,33.668
31.23,33.575
31.403,33.483
31.638,33.391
31.941,33.299
32.316,33.208
32.766,33.118
33.287,33.028
33.874,32.939
34.518,32.851
35.205,32.766
35.922,32.682
36.651,32.601
37.377,32.522
38.084,32.446
38.76,32.371
39.39,32.297
39.963,32.225
40.472,32.154
40.909,32.084
41.273,32.016
41.561,31.948
41.775,31.882
41.919,31.817
41.998,31.754
42.02,31.691
41.99,31.629
41.918,31.567
41.811,31.506
41.678,31.446
41.526,31.387
41.362,31.329
41.194,31.272
41.025,31.218
40.861,31.167
40.703,31.118
40.553,31.07
40.41,31.022
40.275,30.975
40.145,30.927
40.02,30.878
39.898,30.828
39.779,30.777
39.663,30.729
39.547,30.684
39.431,30.642
39.315,30.606
39.197,30.575
39.077,30.55
38.954,30.532
38.828,30.525
38.698,30.532
38.563,30.561
38.425,30.619
38.285,30.718
38.142,30.867
37.998,31.078
37.853,31.361
37.709,31.724
37.566,32.171
37.426,32.704
37.288,33.322
37.155,34.016
37.028,34.778
36.909,35.593
36.798,36.445
36.695,37.313
36.602,38.179
36.518,39.024
36.444,39.83
36.381,40.582
36.327,41.265
36.283,41.869
36.245,42.388
36.215,42.817
36.192,43.155
36.174,43.405
36.16,43.572
36.15,43.664
36.142,43.688
36.135,43.654
36.127,43.573
36.117,43.456
36.104,43.312
36.086,43.151
36.063,42.98
36.036,42.806
36.003,42.635
35.967,42.47
35.925,42.314
35.88,42.169
35.833,42.035
35.782,41.911
35.727,41.797
35.669,41.69
35.607,41.59
35.541,41.495
35.472,41.403
35.401,41.309
35.326,41.208
35.249,41.098
35.169,40.978
35.085,40.85
35,40.714
34.911,40.575
34.819,40.435
34.725,40.297
34.629,40.163
34.531,40.033
34.432,39.908
34.331,39.787
34.228,39.669
34.126,39.554
34.025,39.442
33.927,39.334
33.832,39.229
33.741,39.128
33.655,39.03
33.574,38.937
33.497,38.847
33.423,38.763
33.35,38.683
33.277,38.609
33.203,38.54
33.127,38.475
33.049,38.415
32.969,38.358
32.886,38.305
32.802,38.255
32.717,38.21
32.632,38.168
32.547,38.128
32.463,38.09
32.381,38.052
32.302,38.015
32.225,37.977
32.152,37.94
32.081,37.901
32.013,37.861
31.947,37.818
31.885,37.771
31.824,37.72
31.763,37.665
31.702,37.605
31.642,37.541
31.582,37.473
31.522,37.402
31.463,37.327
31.403,37.249
31.344,37.166
31.285,37.08
31.227,36.991
31.169,36.899
31.11,36.803
31.052,36.705
30.994,36.606
30.936,36.505
30.879,36.406
30.82,36.318
30.76,36.243
30.7,36.18
30.64,36.125
30.579,36.075
30.519,36.022
30.46,35.964
30.405,35.896
30.355,35.815
30.312,35.721
30.278,35.615
30.254,35.496
30.244,35.368
30.252,35.232
30.284,35.091
30.348,34.948
30.451,34.806
30.605,34.666
30.818,34.53
31.099,34.4
31.453,34.275
31.883,34.157
32.39,34.046
32.968,33.942
33.611,33.845
34.306,33.753
35.041,33.666
35.798,33.583
36.562,33.505
37.315,33.43
38.041,33.356
38.725,33.285
39.355,33.216
39.92,33.15
40.412,33.083
40.827,33.018
41.161,32.954
41.416,32.89
41.594,32.825
41.701,32.76
41.744,32.695
41.73,32.628
41.665,32.561
41.556,32.493
41.415,32.426
41.25,32.36
41.07,32.293
40.883,32.227
40.695,32.161
40.509,32.097
40.33,32.033
40.16,31.97
39.999,31.908
39.849,31.847
39.71,31.787
39.58,31.729
39.459,31.671
39.346,31.616
39.24,31.561
39.136,31.507
39.034,31.452
38.931,31.397
38.824,31.34
38.712,31.282
38.594,31.222
38.468,31.162
38.335,31.102
38.197,31.042
38.055,30.984
37.909,30.929
37.76,30.877
37.609,30.83
37.458,30.789
37.306,30.755
37.156,30.728
37.009,30.711
36.866,30.706
36.729,30.716
36.601,30.749
36.481,30.812
36.371,30.915
36.273,31.068
36.187,31.28
36.113,31.56
36.051,31.916
36,32.351
35.96,32.866
35.927,33.457
35.902,34.117
35.883,34.836
35.869,35.6
35.857,36.392
35.847,37.195
35.838,37.992
35.828,38.764
35.818,39.497
35.805,40.177
35.79,40.791
35.771,41.331
35.75,41.791
35.726,42.169
35.699,42.465
35.67,42.683
35.638,42.826
35.603,42.902
35.565,42.918
35.523,42.882
35.475,42.805
35.422,42.694
35.363,42.559
35.299,42.41
35.232,42.253
35.161,42.093
35.087,41.936
35.01,41.784
34.931,41.642
34.849,41.509
34.765,41.387
34.678,41.275
34.588,41.171
34.495,41.075
34.4,40.985
34.303,40.898
34.206,40.815
34.108,40.734
34.01,40.651
33.912,40.567
33.813,40.478
33.714,40.384
33.615,40.285
33.514,40.182
33.413,40.073
33.311,39.96
33.208,39.843
33.106,39.721
33.007,39.596
32.911,39.469
32.819,39.341
32.732,39.212
32.65,39.086
32.572,38.963
32.497,38.845
32.424,38.733
32.353,38.628
32.283,38.53
32.213,38.442
32.143,38.363
32.07,38.292
31.996,38.231
31.92,38.178
31.842,38.134
31.761,38.096
31.679,38.066
31.597,38.041
31.515,38.02
31.434,38.002
31.355,37.987
31.279,37.974
31.206,37.96
31.135,37.945
31.067,37.927
31.003,37.907
30.941,37.883
30.884,37.856
30.831,37.824
30.78,37.787
30.732,37.746
30.684,37.699
30.638,37.646
30.593,37.587
30.549,37.523
30.506,37.453
30.462,37.378
30.418,37.299
30.375,37.214
30.332,37.124
30.288,37.029
30.245,36.93
30.203,36.828
30.163,36.722
30.125,36.614
30.088,36.504
30.052,36.392
30.016,36.279
29.98,36.166
29.945,36.053
29.911,35.941
29.879,35.831
29.851,35.724
29.831,35.618
29.822,35.514
29.831,35.411
29.867,35.309
29.937,35.208
30.051,35.107
30.221,35.008
30.453,34.909
30.756,34.811
31.133,34.714
31.587,34.618
32.117,34.524
32.718,34.43
33.382,34.337
34.097,34.245
34.85,34.152
35.623,34.061
36.401,33.97
37.167,33.881
37.903,33.792
38.595,33.705
39.229,33.619
39.797,33.535
40.289,33.453
40.702,33.371
41.03,33.291
41.277,33.212
41.445,33.135
41.541,33.061
41.574,32.989
41.549,32.92
41.476,32.852
41.364,32.785
41.221,32.72
41.057,32.655
40.878,32.59
40.691,32.524
40.501,32.459
40.314,32.395
40.132,32.332
39.958,32.272
39.792,32.214
39.635,32.16
39.487,32.108
39.348,32.057
39.216,32.007
39.09,31.96
38.969,31.924
38.851,31.899
38.735,31.885
38.619,31.88
38.502,31.877
38.381,31.873
38.255,31.862
38.124,31.844
37.99,31.815
37.853,31.774
37.714,31.721
37.573,31.659
37.431,31.588
37.289,31.51
37.148,31.428
37.01,31.344
36.873,31.261
36.74,31.179
36.611,31.102
36.487,31.029
36.37,30.962
36.261,30.901
36.161,30.847
36.07,30.8
35.988,30.76
35.914,30.727
35.849,30.701
35.792,30.683
35.741,30.673
35.696,30.673
35.658,30.686
35.624,30.716
35.595,30.769
35.569,30.854
35.546,30.981
35.524,31.16
35.503,31.4
35.482,31.708
35.459,32.089
35.434,32.545
35.407,33.075
35.377,33.673
35.345,34.33
35.309,35.034
35.271,35.768
35.23,36.518
35.186,37.267
35.139,37.996
35.089,38.691
35.035,39.338
34.978,39.926
34.917,40.445
34.852,40.889
34.783,41.255
34.71,41.542
34.632,41.752
34.549,41.888
34.462,41.958
34.37,41.967
34.274,41.926
34.175,41.844
34.074,41.728
33.975,41.588
33.878,41.433
33.785,41.269
33.696,41.103
33.61,40.94
33.526,40.783
33.441,40.633
33.356,40.493
33.268,40.362
33.179,40.241
33.088,40.128
32.997,40.023
32.906,39.923
32.814,39.828
32.722,39.736
32.629,39.646
32.536,39.556
32.442,39.464
32.347,39.371
32.252,39.274
32.158,39.173
32.067,39.067
31.978,38.957
31.891,38.842
31.807,38.723
31.725,38.601
31.645,38.476
31.568,38.35
31.492,38.224
31.417,38.1
31.344,37.98
31.271,37.862
31.199,37.749
31.127,37.642
31.055,37.539
30.983,37.444
30.91,37.355
30.839,37.275
30.769,37.203
30.703,37.138
30.641,37.08
30.582,37.029
30.527,36.985
30.476,36.948
30.425,36.916
30.375,36.89
30.323,36.867
30.271,36.848
30.217,36.83
30.162,36.813
30.107,36.795
30.051,36.777
29.996,36.756
29.941,36.732
29.888,36.697
29.836,36.647
29.787,36.584
29.741,36.508
29.699,36.425
29.662,36.338
29.628,36.249
29.598,36.164
29.572,36.084
29.55,36.009
29.535,35.938
29.528,35.873
29.533,35.812
29.557,35.754
29.606,35.699
29.689,35.646
29.816,35.593
29.995,35.541
30.234,35.487
30.539,35.431
30.916,35.372
31.366,35.309
31.888,35.241
32.478,35.168
33.13,35.09
33.833,35.008
34.574,34.922
35.337,34.833
36.107,34.739
36.866,34.644
37.6,34.547
38.293,34.449
38.932,34.35
39.507,34.252
40.009,34.156
40.435,34.062
40.783,33.971
41.053,33.884
41.248,33.8
41.373,33.719
41.433,33.639
41.435,33.563
41.387,33.489
41.296,33.417
41.172,33.347
41.02,33.278
40.85,33.21
40.668,33.142
40.481,33.075
40.294,33.006
40.11,32.935
39.931,32.863
39.76,32.79
39.597,32.716
39.442,32.642
39.294,32.569
39.151,32.499
39.013,32.43
38.879,32.363
38.748,32.3
38.617,32.239
38.486,32.181
38.354,32.125
38.219,32.072
38.081,32.021
37.941,31.971
37.798,31.923
37.654,31.876
37.509,31.829
37.363,31.782
37.217,31.735
37.07,31.687
36.924,31.638
36.78,31.588
36.638,31.536
36.499,31.484
36.364,31.432
36.234,31.381
36.109,31.331
35.99,31.282
35.879,31.235
35.774,31.19
35.675,31.147
35.582,31.104
35.496,31.062
35.417,31.02
35.344,30.977
35.277,30.932
35.216,30.886
35.161,30.84
35.11,30.794
35.063,30.749
35.02,30.705
34.98,30.662
34.943,30.62
34.908,30.58
34.874,30.541
34.841,30.503
34.807,30.465
34.771,30.429
34.732,30.394
34.691,30.364
34.645,30.34
34.595,30.322
34.541,30.312
34.481,30.313
34.416,30.328
34.348,30.36
34.276,30.416
34.201,30.502
34.124,30.626
34.048,30.796
33.971,31.02
33.895,31.304
33.819,31.654
33.742,32.07
33.666,32.548
33.59,33.085
33.515,33.674
33.439,34.306
33.362,34.969
33.283,35.652
33.2,36.34
33.114,37.016
33.024,37.667
32.931,38.278
32.835,38.838
32.739,39.336
32.643,39.767
32.549,40.126
32.456,40.411
32.366,40.623
32.278,40.766
32.195,40.846
32.114,40.868
32.035,40.839
31.958,40.769
31.883,40.666
31.809,40.537
31.735,40.389
31.662,40.23
31.588,40.067
31.515,39.905
31.443,39.745
31.371,39.593
31.301,39.449
31.232,39.315
31.165,39.19
31.101,39.072
31.038,38.96
30.976,38.854
30.916,38.752
30.855,38.652
30.793,38.553
30.729,38.454
30.663,38.353
30.595,38.25
30.524,38.144
30.451,38.035
30.378,37.923
30.305,37.809
30.234,37.694
30.164,37.578
30.097,37.461
30.032,37.346
29.97,37.232
29.91,37.119
29.853,37.008
29.798,36.901
29.746,36.797
29.697,36.696
29.65,36.597
29.605,36.502
29.56,36.411
29.516,36.324
29.473,36.242
29.433,36.166
29.396,36.096
29.363,36.032
29.333,35.975
29.308,35.923
29.287,35.876
29.271,35.832
29.26,35.791
29.255,35.752
29.257,35.714
29.269,35.679
29.292,35.644
29.331,35.609
29.392,35.574
29.481,35.537
29.606,35.497
29.776,35.455
30,35.41
30.287,35.362
30.646,35.312
31.081,35.259
31.595,35.205
32.187,35.148
32.853,35.09
33.582,35.029
34.363,34.965
35.179,34.898
36.011,34.829
36.842,34.758
37.653,34.685
38.429,34.61
39.154,34.534
39.816,34.456
40.404,34.377
40.912,34.297
41.336,34.216
41.675,34.135
41.929,34.055
42.104,33.976
42.204,33.899
42.235,33.824
42.208,33.75
42.13,33.679
42.011,33.611
41.86,33.547
41.684,33.487
41.492,33.431
41.291,33.38
41.088,33.335
40.887,33.295
40.691,33.259
40.504,33.227
40.325,33.196
40.154,33.165
39.992,33.132
39.836,33.095
39.687,33.055
39.541,33.01
39.399,32.961
39.259,32.908
39.122,32.852
38.987,32.794
38.854,32.732
38.722,32.666
38.59,32.597
38.458,32.525
38.324,32.451
38.188,32.376
38.05,32.302
37.911,32.229
37.773,32.158
37.635,32.09
37.498,32.024
37.364,31.962
37.233,31.901
37.105,31.842
36.979,31.783
36.855,31.725
36.732,31.667
36.612,31.61
36.494,31.556
36.381,31.503
36.273,31.451
36.17,31.399
36.074,31.346
35.985,31.292
35.904,31.235
35.83,31.174
35.76,31.11
35.695,31.043
35.635,30.973
35.579,30.901
35.527,30.828
35.48,30.755
35.437,30.682
35.397,30.61
35.361,30.54
35.327,30.472
35.293,30.405
35.258,30.34
35.219,30.277
35.177,30.216
35.131,30.157
35.08,30.102
35.024,30.051
34.961,30.003
34.893,29.96
34.819,29.922
34.74,29.888
34.655,29.857
34.565,29.828
34.471,29.802
34.375,29.777
34.278,29.752
34.182,29.726
34.087,29.699
33.995,29.67
33.904,29.641
33.815,29.612
33.727,29.585
33.638,29.563
33.548,29.546
33.456,29.536
33.362,29.535
33.268,29.545
33.173,29.568
33.079,29.609
32.984,29.672
32.891,29.764
32.8,29.893
32.709,30.066
32.619,30.29
32.53,30.571
32.441,30.911
32.355,31.312
32.269,31.771
32.185,32.286
32.102,32.848
32.021,33.45
31.941,34.079
31.863,34.724
31.786,35.369
31.71,36.004
31.635,36.613
31.562,37.186
31.491,37.714
31.421,38.187
31.352,38.6
31.283,38.95
31.214,39.237
31.147,39.46
31.081,39.624
31.015,39.73
30.949,39.785
30.885,39.796
30.822,39.769
30.758,39.709
30.694,39.623
30.63,39.519
30.567,39.401
30.505,39.274
30.444,39.142
30.385,39.01
30.327,38.879
30.273,38.751
30.223,38.625
30.18,38.504
30.141,38.388
30.108,38.276
30.079,38.168
30.056,38.066
30.036,37.966
30.019,37.869
30.004,37.774
29.99,37.68
29.976,37.587
29.962,37.497
29.948,37.406
29.933,37.316
29.919,37.224
29.908,37.13
29.901,37.034
29.9,36.935
29.908,36.832
29.926,36.727
29.961,36.62
30.016,36.512
30.099,36.404
30.221,36.298
30.397,36.194
30.641,36.092
30.963,35.994
31.368,35.899
31.857,35.808
32.43,35.721
33.082,35.639
33.807,35.561
34.594,35.487
35.43,35.416
36.298,35.349
37.182,35.285
38.063,35.223
38.923,35.164
39.744,35.107
40.512,35.052
41.21,34.998
41.83,34.947
42.362,34.896
42.803,34.845
43.151,34.794
43.407,34.742
43.576,34.688
43.665,34.634
43.682,34.577
43.639,34.52
43.544,34.461
43.408,34.401
43.24,34.34
43.05,34.278
42.845,34.215
42.633,34.149
42.421,34.082
42.211,34.012
42.008,33.94
41.813,33.867
41.628,33.792
41.454,33.716
41.29,33.64
41.134,33.564
40.985,33.489
40.841,33.414
40.699,33.339
40.558,33.266
40.414,33.199
40.266,33.139
40.112,33.086
39.951,33.037
39.783,32.993
39.607,32.95
39.425,32.906
39.238,32.86
39.048,32.81
38.855,32.753
38.662,32.69
38.468,32.62
38.278,32.545
38.091,32.465
37.911,32.383
37.738,32.3
37.572,32.218
37.414,32.137
37.265,32.058
37.124,31.979
36.993,31.904
36.87,31.832
36.756,31.763
36.651,31.698
36.553,31.638
36.462,31.582
36.379,31.53
36.301,31.482
36.228,31.437
36.16,31.395
36.097,31.353
36.039,31.312
35.985,31.271
35.934,31.231
35.885,31.19
35.838,31.147
35.792,31.105
35.745,31.062
35.698,31.018
35.649,30.974
35.599,30.931
35.547,30.887
35.493,30.843
35.436,30.799
35.374,30.756
35.306,30.713
35.233,30.672
35.155,30.631
35.075,30.591
34.993,30.552
34.909,30.516
34.824,30.482
34.739,30.451
34.653,30.421
34.564,30.394
34.472,30.369
34.377,30.345
34.279,30.323
34.177,30.303
34.072,30.285
33.963,30.27
33.853,30.256
33.744,30.243
33.636,30.23
33.531,30.216
33.428,30.201
33.329,30.184
33.233,30.164
33.141,30.141
33.052,30.116
32.966,30.089
32.882,30.06
32.799,30.031
32.717,30.001
32.633,29.972
32.549,29.943
32.462,29.914
32.374,29.886
32.285,29.861
32.197,29.84
32.111,29.824
32.028,29.814
31.95,29.812
31.877,29.821
31.808,29.843
31.742,29.882
31.677,29.944
31.614,30.035
31.552,30.163
31.491,30.335
31.43,30.559
31.37,30.842
31.31,31.19
31.249,31.606
31.187,32.089
31.125,32.638
31.062,33.247
30.999,33.906
30.936,34.603
30.874,35.324
30.814,36.055
30.756,36.782
30.699,37.49
30.645,38.163
30.593,38.791
30.541,39.363
30.49,39.87
30.438,40.309
30.387,40.675
30.336,40.97
30.288,41.194
30.24,41.35
30.193,41.445
30.147,41.482
30.102,41.47
30.059,41.416
30.019,41.326
29.982,41.21
29.95,41.072
29.923,40.921
29.903,40.761
29.891,40.599
29.889,40.438
29.899,40.281
29.926,40.129
29.984,39.985
30.088,39.847
30.248,39.716
30.473,39.591
30.769,39.47
31.14,39.353
31.59,39.24
32.117,39.127
32.718,39.014
33.388,38.901
34.12,38.787
34.904,38.671
35.726,38.55
36.572,38.427
37.428,38.302
38.276,38.174
39.099,38.045
39.883,37.915
40.613,37.784
41.278,37.653
41.867,37.524
42.375,37.396
42.798,37.271
43.135,37.151
43.387,37.036
43.559,36.926
43.655,36.82
43.686,36.719
43.658,36.623
43.582,36.531
43.466,36.442
43.319,36.356
43.149,36.274
42.964,36.195
42.771,36.119
42.574,36.045
42.377,35.973
42.183,35.902
41.993,35.83
41.809,35.759
41.632,35.688
41.462,35.617
41.297,35.547
41.138,35.477
40.983,35.407
40.833,35.337
40.685,35.266
40.538,35.193
40.391,35.12
40.245,35.046
40.098,34.972
39.951,34.896
39.802,34.819
39.65,34.741
39.496,34.661
39.341,34.581
39.186,34.498
39.031,34.414
38.877,34.33
38.725,34.246
38.575,34.162
38.427,34.079
38.283,33.996
38.142,33.914
38.006,33.832
37.877,33.75
37.757,33.668
37.645,33.587
37.543,33.507
37.449,33.428
37.365,33.352
37.289,33.278
37.221,33.206
37.159,33.137
37.103,33.069
37.051,33.004
37.003,32.939
36.958,32.874
36.917,32.807
36.878,32.74
36.841,32.673
36.806,32.605
36.77,32.536
36.736,32.468
36.701,32.401
36.666,32.333
36.631,32.264
36.596,32.195
36.56,32.126
36.522,32.058
36.479,31.99
36.43,31.923
36.375,31.857
36.313,31.792
36.243,31.729
36.166,31.668
36.082,31.609
35.991,31.552
35.895,31.498
35.794,31.446
35.688,31.398
35.579,31.352
35.468,31.308
35.355,31.267
35.242,31.228
35.128,31.19
35.016,31.151
34.905,31.111
34.795,31.069
34.687,31.023
34.581,30.975
34.477,30.924
34.373,30.873
34.27,30.822
34.166,30.77
34.063,30.72
33.959,30.672
33.856,30.626
33.755,30.584
33.656,30.543
33.559,30.505
33.467,30.468
33.377,30.433
33.29,30.399
33.206,30.365
33.124,30.332
33.045,30.3
32.967,30.269
32.891,30.239
32.817,30.211
32.744,30.185
32.672,30.161
32.6,30.138
32.528,30.116
32.455,30.094
32.38,30.073
32.304,30.053
32.227,30.035
32.148,30.019
32.07,30.005
31.991,29.995
31.913,29.99
31.836,29.989
31.758,29.995
31.682,30.006
31.606,30.024
31.532,30.051
31.459,30.087
31.387,30.138
31.316,30.208
31.245,30.304
31.173,30.433
31.101,30.602
31.029,30.815
30.957,31.078
30.886,31.395
30.818,31.765
30.753,32.188
30.694,32.661
30.641,33.177
30.595,33.729
30.558,34.307
30.532,34.9
30.519,35.495
30.522,36.082
30.545,36.65
30.592,37.188
30.674,37.686
30.797,38.137
30.973,38.536
31.207,38.878
31.507,39.161
31.879,39.387
32.326,39.556
32.848,39.673
33.441,39.74
34.1,39.764
34.814,39.751
35.572,39.704
36.359,39.63
37.158,39.534
37.951,39.421
38.722,39.296
39.455,39.163
40.135,39.026
40.751,38.885
41.292,38.745
41.753,38.606
42.13,38.47
42.424,38.339
42.638,38.213
42.778,38.092
42.849,37.976
42.86,37.863
42.819,37.753
42.735,37.645
42.616,37.538
42.469,37.43
42.301,37.321
42.12,37.212
41.932,37.1
41.741,36.987
41.551,36.872
41.366,36.754
41.188,36.635
41.019,36.513
40.858,36.389
40.707,36.265
40.563,36.141
40.424,36.019
40.289,35.9
40.156,35.785
40.023,35.673
39.889,35.566
39.752,35.464
39.611,35.368
39.466,35.278
39.319,35.193
39.168,35.112
39.015,35.036
38.859,34.963
38.701,34.892
38.542,34.818
38.381,34.735
38.219,34.643
38.059,34.545
37.9,34.442
37.743,34.336
37.592,34.233
37.447,34.135
37.31,34.043
37.182,33.958
37.066,33.882
36.962,33.814
36.87,33.754
36.79,33.701
36.721,33.655
36.664,33.613
36.617,33.574
36.579,33.536
36.548,33.498
36.525,33.456
36.508,33.41
36.495,33.36
36.486,33.304
36.479,33.243
36.472,33.179
36.463,33.112
36.45,33.043
36.435,32.973
36.415,32.903
36.391,32.833
36.363,32.764
36.33,32.696
36.293,32.629
36.252,32.564
36.208,32.499
36.16,32.436
36.106,32.375
36.048,32.317
35.985,32.26
35.918,32.206
35.847,32.153
35.772,32.102
35.693,32.053
35.612,32.004
35.528,31.956
35.44,31.907
35.348,31.859
35.252,31.811
35.153,31.764
35.049,31.716
34.944,31.669
34.836,31.622
34.726,31.575
34.615,31.528
34.504,31.482
34.394,31.436
34.283,31.39
34.172,31.344
34.062,31.3
33.953,31.259
33.845,31.22
33.738,31.184
33.634,31.15
33.53,31.117
33.43,31.084
33.332,31.051
33.237,31.015
33.143,30.978
33.052,30.939
32.962,30.899
32.875,30.859
32.79,30.819
32.706,30.78
32.623,30.741
32.54,30.702
32.457,30.664
32.373,30.627
32.288,30.589
32.201,30.552
32.113,30.514
32.023,30.478
31.933,30.443
31.845,30.411
31.758,30.38
31.671,30.352
31.587,30.325
31.504,30.299
31.424,30.273
31.344,30.248
31.267,30.223
31.191,30.198
31.117,30.174
31.045,30.152
30.975,30.133
30.906,30.117
30.84,30.106
30.779,30.101
30.722,30.101
30.672,30.107
30.63,30.121
30.597,30.143
30.576,30.174
30.572,30.215
30.589,30.269
30.634,30.341
30.713,30.437
30.837,30.56
31.013,30.718
31.25,30.917
31.555,31.161
31.932,31.453
32.384,31.794
32.911,32.185
33.509,32.625
34.17,33.11
34.882,33.634
35.63,34.188
36.401,34.762
37.176,35.343
37.94,35.919
38.676,36.479
39.37,37.013
40.01,37.512
40.585,37.969
41.089,38.376
41.517,38.731
41.865,39.031
42.135,39.274
42.33,39.463
42.456,39.598
42.518,39.685
42.525,39.728
42.484,39.731
42.405,39.7
42.295,39.642
42.161,39.562
42.011,39.464
41.85,39.353
41.681,39.232
41.509,39.106
41.338,38.978
41.169,38.849
41.005,38.722
40.845,38.597
40.69,38.477
40.54,38.362
40.393,38.251
40.248,38.143
40.103,38.039
39.956,37.938
39.806,37.838
39.652,37.738
39.494,37.637
39.333,37.535
39.168,37.431
39,37.327
38.831,37.22
38.661,37.111
38.49,36.999
38.319,36.885
38.147,36.77
37.978,36.654
37.811,36.538
37.649,36.424
37.493,36.312
37.345,36.204
37.206,36.098
37.078,35.996
36.963,35.897
36.859,35.802
36.766,35.709
36.685,35.622
36.615,35.539
36.554,35.46
36.502,35.386
36.457,35.316
36.42,35.249
36.389,35.187
36.364,35.129
36.345,35.074
36.33,35.022
36.317,34.973
36.304,34.925
36.291,34.878
36.278,34.83
36.262,34.781
36.245,34.731
36.225,34.679
36.205,34.625
36.185,34.569
36.165,34.511
36.145,34.452
36.123,34.39
36.098,34.328
36.07,34.263
36.038,34.198
36.001,34.132
35.959,34.064
35.912,33.995
35.86,33.924
35.802,33.852
35.74,33.78
35.672,33.708
35.6,33.636
35.522,33.567
35.438,33.498
35.35,33.43
35.254,33.364
35.153,33.298
35.046,33.234
34.936,33.169
34.824,33.104
34.71,33.04
34.596,32.978
34.482,32.915
34.368,32.852
34.257,32.788
34.147,32.723
34.039,32.656
33.934,32.588
33.833,32.518
33.736,32.448
33.644,32.379
33.555,32.311
33.468,32.245
33.383,32.182
33.299,32.123
33.215,32.066
33.129,32.01
33.043,31.955
32.956,31.899
32.87,31.841
32.784,31.78
32.7,31.719
32.617,31.657
32.535,31.595
32.453,31.536
32.373,31.481
32.293,31.429
32.214,31.381
32.136,31.337
32.059,31.297
31.984,31.261
31.909,31.228
31.833,31.196
31.757,31.166
31.679,31.139
31.6,31.113
31.522,31.088
31.445,31.064
31.37,31.04
31.3,31.014
31.234,30.985
31.175,30.954
31.121,30.921
31.073,30.886
31.031,30.85
30.999,30.813
30.978,30.778
30.973,30.743
30.988,30.71
31.03,30.678
31.105,30.648
31.223,30.62
31.392,30.593
31.62,30.567
31.914,30.543
32.278,30.52
32.715,30.5
33.225,30.481
33.803,30.463
34.442,30.448
35.131,30.436
35.856,30.428
36.603,30.423
37.352,30.422
38.077,30.426
38.76,30.436
39.389,30.453
39.954,30.478
40.451,30.514
40.877,30.566
41.23,30.639
41.515,30.742
41.734,30.882
41.894,31.069
41.998,31.308
42.052,31.607
42.062,31.969
42.033,32.399
41.969,32.897
41.878,33.463
41.764,34.09
41.633,34.772
41.49,35.498
41.34,36.254
41.188,37.027
41.036,37.801
40.888,38.563
40.743,39.296
40.602,39.988
40.464,40.627
40.329,41.204
40.196,41.713
40.065,42.148
39.935,42.509
39.806,42.797
39.676,43.014
39.546,43.164
39.415,43.254
39.281,43.29
39.144,43.28
39.004,43.231
38.861,43.151
38.715,43.045
38.565,42.92
38.414,42.78
38.261,42.632
38.109,42.478
37.959,42.323
37.812,42.169
37.668,42.018
37.53,41.871
37.4,41.726
37.279,41.585
37.169,41.447
37.069,41.31
36.979,41.175
36.899,41.041
36.83,40.907
36.77,40.772
36.72,40.634
36.68,40.494
36.647,40.353
36.623,40.209
36.605,40.063
36.592,39.915
36.583,39.765
36.578,39.614
36.575,39.463
36.573,39.312
36.573,39.162
36.571,39.015
36.568,38.87
36.563,38.727
36.553,38.587
36.539,38.451
36.519,38.32
36.492,38.191
36.459,38.064
36.419,37.939
36.375,37.817
36.325,37.698
36.27,37.582
36.213,37.47
36.152,37.361
36.088,37.257
36.021,37.157
35.95,37.062
35.875,36.972
35.798,36.886
35.72,36.803
35.643,36.723
35.564,36.645
35.486,36.568
35.407,36.492
35.329,36.415
35.249,36.338
35.167,36.26
35.083,36.182
34.997,36.102
34.907,36.021
34.814,35.939
34.718,35.855
34.619,35.769
34.518,35.681
34.415,35.592
34.313,35.501
34.213,35.409
34.115,35.315
34.02,35.22
33.929,35.124
33.843,35.027
33.763,34.929
33.687,34.83
33.614,34.732
33.545,34.635
33.478,34.538
33.413,34.443
33.348,34.35
33.282,34.259
33.216,34.17
33.148,34.083
33.081,33.997
33.015,33.913
32.95,33.83
32.886,33.749
32.824,33.668
32.764,33.588
32.707,33.509
32.651,33.43
32.598,33.353
32.547,33.276
32.497,33.2
32.449,33.125
32.402,33.051
32.353,32.977
32.303,32.903
32.251,32.829
32.197,32.754
32.144,32.679
32.09,32.604
32.039,32.53
31.991,32.457
31.95,32.387
31.919,32.319
31.902,32.253
31.905,32.19
31.934,32.131
31.999,32.075
32.107,32.021
32.266,31.968
32.483,31.918
32.764,31.871
33.112,31.826
33.527,31.782
34.006,31.738
34.542,31.695
35.127,31.653
35.749,31.61
36.395,31.567
37.054,31.524
37.71,31.48
38.35,31.436
38.96,31.391
39.529,31.345
40.047,31.299
40.508,31.252
40.907,31.205
41.237,31.159
41.499,31.114
41.693,31.072
41.823,31.033
41.892,30.996
41.907,30.962
41.875,30.928
41.804,30.897
41.701,30.865
41.573,30.834
41.427,30.802
41.267,30.77
41.101,30.739
40.931,30.708
40.761,30.678
40.595,30.648
40.432,30.62
40.276,30.592
40.126,30.564
39.983,30.538
39.846,30.515
39.715,30.496
39.59,30.483
39.469,30.477
39.351,30.479
39.234,30.49
39.118,30.514
39,30.554
38.88,30.614
38.757,30.702
38.632,30.824
38.504,30.989
38.375,31.205
38.244,31.481
38.112,31.821
37.981,32.229
37.851,32.708
37.724,33.253
37.6,33.861
37.479,34.523
37.362,35.228
37.25,35.965
37.145,36.717
37.048,37.469
36.959,38.207
36.879,38.916
36.808,39.585
36.748,40.202
36.696,40.76
36.652,41.252
36.617,41.675
36.59,42.028
36.571,42.31
36.56,42.527
36.556,42.68
36.559,42.776
36.568,42.821
36.582,42.822
36.599,42.786
36.618,42.719
36.637,42.627
36.654,42.515
36.668,42.389
36.678,42.253
36.681,42.112
36.677,41.968
36.666,41.825
36.646,41.684
36.619,41.546
36.583,41.412
36.539,41.282
36.487,41.156
36.427,41.033
36.361,40.912
36.289,40.791
36.212,40.671
36.13,40.548
36.044,40.425
35.957,40.298
35.867,40.169
35.778,40.037
35.691,39.901
35.605,39.763
35.521,39.623
35.438,39.48
35.356,39.337
35.274,39.193
35.191,39.05
35.107,38.907
35.024,38.766
34.941,38.626
34.857,38.49
34.772,38.357
34.685,38.227
34.597,38.1
34.507,37.975
34.417,37.853
34.328,37.734
34.239,37.616
34.153,37.498
34.07,37.382
33.992,37.269
33.917,37.157
33.844,37.048
33.775,36.941
33.708,36.838
33.644,36.738
33.581,36.641
33.52,36.546
33.46,36.453
33.401,36.363
33.343,36.274
33.285,36.186
33.227,36.099
33.168,36.012
33.109,35.925
33.05,35.837
32.992,35.749
32.934,35.662
32.877,35.574
32.822,35.487
32.768,35.401
32.717,35.315
32.666,35.23
32.617,35.144
32.568,35.059
32.52,34.972
32.472,34.887
32.425,34.802
32.377,34.718
32.33,34.635
32.284,34.553
32.241,34.474
32.201,34.396
32.167,34.319
32.14,34.243
32.123,34.168
32.121,34.093
32.139,34.016
32.184,33.933
32.26,33.84
32.377,33.738
32.541,33.63
32.758,33.518
33.033,33.407
33.366,33.298
33.759,33.194
34.209,33.097
34.709,33.008
35.252,32.928
35.827,32.857
36.421,32.794
37.022,32.739
37.616,32.69
38.191,32.645
38.735,32.602
39.237,32.561
39.687,32.519
40.081,32.477
40.412,32.435
40.681,32.391
40.887,32.347
41.032,32.301
41.119,32.253
41.153,32.203
41.14,32.15
41.086,32.096
40.997,32.04
40.88,31.982
40.742,31.923
40.588,31.864
40.425,31.806
40.257,31.749
40.086,31.695
39.917,31.642
39.752,31.592
39.592,31.543
39.439,31.497
39.293,31.454
39.154,31.413
39.023,31.376
38.898,31.339
38.78,31.305
38.668,31.272
38.561,31.241
38.459,31.21
38.359,31.179
38.261,31.148
38.163,31.117
38.064,31.086
37.963,31.054
37.859,31.023
37.753,30.991
37.645,30.96
37.535,30.929
37.422,30.894
37.309,30.845
37.195,30.782
37.082,30.705
36.971,30.619
36.863,30.528
36.76,30.439
36.664,30.355
36.576,30.281
36.497,30.22
36.428,30.174
36.368,30.144
36.318,30.129
36.278,30.129
36.246,30.143
36.223,30.169
36.206,30.205
36.197,30.249
36.196,30.301
36.201,30.359
36.212,30.421
36.226,30.489
36.244,30.564
36.263,30.649
36.282,30.748
36.298,30.87
36.311,31.021
36.318,31.211
36.319,31.446
36.313,31.736
36.301,32.088
36.282,32.506
36.256,32.991
36.221,33.541
36.178,34.152
36.128,34.816
36.07,35.523
36.002,36.26
35.924,37.014
35.837,37.771
35.745,38.516
35.649,39.235
35.55,39.916
35.451,40.546
35.354,41.118
35.259,41.624
35.169,42.062
35.082,42.429
34.999,42.727
34.919,42.956
34.842,43.12
34.769,43.223
34.699,43.273
34.632,43.275
34.568,43.236
34.504,43.163
34.441,43.063
34.378,42.944
34.314,42.81
34.248,42.666
34.18,42.517
34.111,42.367
34.041,42.219
33.971,42.077
33.902,41.941
33.832,41.813
33.763,41.694
33.693,41.583
33.624,41.475
33.554,41.371
33.484,41.267
33.413,41.161
33.343,41.053
33.274,40.941
33.204,40.824
33.136,40.702
33.069,40.575
33.002,40.442
32.937,40.303
32.872,40.159
32.808,40.01
32.746,39.858
32.688,39.704
32.632,39.55
32.581,39.397
32.533,39.246
32.488,39.096
32.445,38.95
32.405,38.807
32.365,38.668
32.326,38.534
32.287,38.405
32.249,38.282
32.213,38.166
32.18,38.055
32.149,37.949
32.12,37.849
32.094,37.755
32.072,37.665
32.058,37.58
32.056,37.499
32.069,37.42
32.104,37.344
32.167,37.268
32.266,37.193
32.407,37.117
32.596,37.041
32.837,36.965
33.133,36.888
33.485,36.809
33.89,36.729
34.344,36.647
34.839,36.564
35.369,36.479
35.922,36.393
36.488,36.306
37.056,36.218
37.613,36.131
38.149,36.043
38.654,35.956
39.118,35.869
39.534,35.781
39.895,35.692
40.199,35.602
40.444,35.511
40.631,35.419
40.763,35.327
40.844,35.235
40.878,35.143
40.871,35.052
40.828,34.961
40.754,34.871
40.657,34.782
40.54,34.693
40.408,34.605
40.266,34.519
40.12,34.435
39.973,34.353
39.829,34.273
39.689,34.196
39.556,34.119
39.43,34.042
39.309,33.965
39.195,33.889
39.085,33.812
38.979,33.736
38.874,33.662
38.771,33.59
38.667,33.518
38.563,33.447
38.457,33.376
38.348,33.305
38.237,33.234
38.123,33.164
38.006,33.095
37.883,33.026
37.754,32.959
37.621,32.893
37.484,32.828
37.344,32.765
37.204,32.703
37.065,32.643
36.93,32.586
36.802,32.53
36.681,32.477
36.569,32.427
36.466,32.377
36.372,32.329
36.29,32.282
36.219,32.235
36.16,32.189
36.113,32.143
36.078,32.096
36.054,32.05
36.04,32.005
36.036,31.962
36.04,31.921
36.049,31.883
36.062,31.847
36.078,31.814
36.097,31.782
36.116,31.752
36.133,31.722
36.149,31.691
36.162,31.66
36.172,31.627
36.177,31.593
36.176,31.558
36.169,31.521
36.155,31.484
36.134,31.445
36.108,31.405
36.075,31.365
36.037,31.324
35.994,31.284
35.946,31.245
35.893,31.206
35.833,31.17
35.768,31.135
35.698,31.102
35.626,31.072
35.551,31.043
35.476,31.015
35.399,30.989
35.321,30.964
35.242,30.938
35.162,30.912
35.079,30.888
34.996,30.865
34.912,30.846
34.828,30.831
34.745,30.822
34.664,30.821
34.584,30.83
34.506,30.848
34.429,30.878
34.355,30.923
34.284,30.986
34.215,31.072
34.149,31.187
34.084,31.341
34.02,31.541
33.958,31.796
33.896,32.111
33.834,32.493
33.771,32.943
33.706,33.461
33.641,34.042
33.574,34.68
33.507,35.365
33.44,36.088
33.374,36.832
33.309,37.585
33.247,38.33
33.188,39.051
33.131,39.735
33.077,40.369
33.024,40.944
32.973,41.454
32.922,41.896
32.873,42.269
32.823,42.573
32.775,42.81
32.728,42.985
32.683,43.101
32.638,43.165
32.593,43.184
32.549,43.165
32.505,43.112
32.46,43.034
32.414,42.935
32.369,42.822
32.325,42.7
32.283,42.572
32.243,42.441
32.207,42.31
32.177,42.18
32.154,42.054
32.143,41.93
32.148,41.809
32.174,41.692
32.228,41.578
32.316,41.466
32.445,41.355
32.621,41.243
32.848,41.131
33.129,41.017
33.462,40.9
33.842,40.779
34.262,40.655
34.719,40.527
35.208,40.394
35.721,40.258
36.251,40.119
36.791,39.978
37.331,39.837
37.86,39.696
38.37,39.556
38.85,39.418
39.292,39.284
39.69,39.153
40.038,39.026
40.335,38.905
40.579,38.788
40.769,38.675
40.906,38.566
40.993,38.462
41.035,38.362
41.035,38.267
40.998,38.176
40.929,38.09
40.833,38.006
40.717,37.923
40.583,37.841
40.438,37.759
40.287,37.678
40.133,37.599
39.98,37.522
39.833,37.448
39.691,37.375
39.557,37.303
39.43,37.232
39.308,37.161
39.192,37.092
39.079,37.023
38.97,36.954
38.862,36.884
38.756,36.814
38.653,36.744
38.553,36.673
38.454,36.601
38.354,36.528
38.254,36.453
38.151,36.376
38.046,36.298
37.938,36.217
37.825,36.135
37.709,36.051
37.59,35.967
37.471,35.882
37.352,35.797
37.235,35.713
37.122,35.631
37.014,35.551
36.911,35.472
36.816,35.396
36.728,35.324
36.647,35.254
36.575,35.188
36.51,35.124
36.454,35.065
36.407,35.008
36.368,34.956
36.336,34.906
36.312,34.86
36.294,34.815
36.282,34.771
36.274,34.728
36.268,34.684
36.265,34.638
36.263,34.59
36.263,34.539
36.264,34.484
36.266,34.426
36.27,34.363
36.273,34.297
36.275,34.227
36.275,34.156
36.272,34.089
36.262,34.034
36.245,33.991
36.221,33.958
36.189,33.931
36.15,33.905
36.104,33.875
36.052,33.838
35.996,33.79
35.935,33.731
35.87,33.659
35.8,33.574
35.727,33.479
35.649,33.375
35.569,33.265
35.485,33.151
35.399,33.037
35.313,32.924
35.225,32.815
35.139,32.712
35.054,32.616
34.97,32.529
34.888,32.449
34.806,32.378
34.727,32.315
34.649,32.26
34.572,32.213
34.496,32.171
34.421,32.135
34.347,32.102
34.273,32.07
34.199,32.04
34.124,32.01
34.048,31.98
33.972,31.948
33.896,31.915
33.82,31.882
33.745,31.849
33.671,31.815
33.599,31.78
33.528,31.743
33.458,31.707
33.389,31.669
33.322,31.629
33.256,31.588
33.191,31.546
33.128,31.503
33.065,31.459
33.005,31.417
32.944,31.374
32.883,31.332
32.822,31.29
32.761,31.249
32.699,31.21
32.635,31.174
32.57,31.141
32.506,31.114
32.442,31.093
32.38,31.08
32.32,31.07
32.263,31.055
32.208,31.037
32.156,31.021
32.106,31.016
32.059,31.032
32.013,31.08
31.97,31.172
31.929,31.319
31.893,31.529
31.861,31.81
31.835,32.166
31.819,32.597
31.814,33.101
31.825,33.669
31.856,34.295
31.911,34.967
31.996,35.673
32.118,36.397
32.287,37.123
32.508,37.838
32.785,38.526
33.121,39.175
33.514,39.773
33.963,40.312
34.459,40.786
34.996,41.191
35.561,41.525
36.142,41.788
36.728,41.983
37.306,42.116
37.864,42.192
38.391,42.22
38.877,42.206
39.315,42.156
39.7,42.078
40.029,41.98
40.299,41.867
40.511,41.745
40.666,41.618
40.767,41.491
40.819,41.364
40.827,41.241
40.798,41.121
40.737,41.005
40.652,40.894
40.548,40.787
40.432,40.684
40.307,40.584
40.179,40.484
40.051,40.383
39.924,40.281
39.799,40.178
39.679,40.073
39.564,39.965
39.454,39.854
39.348,39.741
39.248,39.624
39.152,39.503
39.059,39.38
38.969,39.257
38.88,39.134
38.791,39.011
38.702,38.89
38.612,38.771
38.519,38.654
38.422,38.539
38.322,38.426
38.219,38.317
38.113,38.213
38.003,38.113
37.889,38.017
37.772,37.926
37.652,37.839
37.53,37.756
37.407,37.677
37.282,37.602
37.158,37.53
37.035,37.462
36.916,37.397
36.802,37.334
36.697,37.273
36.601,37.213
36.515,37.153
36.44,37.093
36.377,37.033
36.323,36.973
36.27,36.912
36.215,36.851
36.158,36.789
36.102,36.726
36.051,36.662
36.008,36.598
35.977,36.531
35.96,36.462
35.958,36.392
35.968,36.321
35.99,36.247
36.021,36.17
36.057,36.093
36.095,36.014
36.132,35.934
36.165,35.853
36.193,35.77
36.214,35.688
36.226,35.607
36.229,35.526
36.221,35.445
36.203,35.365
36.173,35.285
36.133,35.205
36.082,35.124
36.022,35.043
35.955,34.963
35.882,34.884
35.805,34.805
35.724,34.727
35.642,34.649
35.558,34.571
35.474,34.492
35.388,34.414
35.301,34.337
35.213,34.262
35.125,34.188
35.035,34.115
34.946,34.044
34.858,33.975
34.77,33.909
34.683,33.844
34.596,33.781
34.508,33.722
34.421,33.664
34.335,33.608
34.25,33.553
34.167,33.5
34.085,33.446
34.006,33.391
33.93,33.334
33.856,33.275
33.783,33.214
33.709,33.153
33.634,33.092
33.557,33.031
33.48,32.971
33.402,32.913
33.326,32.855
33.251,32.799
33.18,32.745
33.113,32.693
33.048,32.644
32.987,32.596
32.929,32.551
32.873,32.508
32.819,32.467
32.766,32.428
32.716,32.391
32.666,32.355
32.617,32.32
32.567,32.285
32.518,32.25
32.468,32.215
32.418,32.181
32.368,32.147
32.318,32.113
32.268,32.08
32.217,32.048
32.166,32.015
32.115,31.984
32.065,31.952
32.015,31.921
31.965,31.891
31.916,31.86
31.867,31.829
31.819,31.796
31.771,31.763
31.725,31.729
31.681,31.695
31.641,31.661
31.606,31.626
31.577,31.59
31.559,31.555
31.554,31.521
31.568,31.489
31.608,31.458
31.683,31.429
31.799,31.403
31.963,31.38
32.181,31.36
32.456,31.344
32.791,31.333
33.183,31.328
33.628,31.328
34.122,31.334
34.654,31.347
35.216,31.371
35.795,31.411
36.381,31.47
36.961,31.555
37.523,31.674
38.057,31.831
38.553,32.033
39.003,32.284
39.403,32.588
39.747,32.945
40.033,33.356
40.262,33.816
40.434,34.32
40.555,34.861
40.628,35.43
40.658,36.015
40.65,36.605
40.611,37.19
40.546,37.757
40.461,38.296
40.36,38.797
40.247,39.251
40.128,39.653
40.006,39.997
39.884,40.281
39.764,40.506
39.647,40.673
39.535,40.787
39.426,40.851
39.322,40.871
39.221,40.853
39.123,40.803
39.027,40.728
38.932,40.635
38.838,40.528
38.745,40.412
38.652,40.292
38.557,40.169
38.461,40.046
38.362,39.925
38.259,39.808
38.153,39.697
38.043,39.592
37.927,39.492
37.805,39.395
37.678,39.299
37.548,39.203
37.417,39.105
37.286,39.004
37.158,38.899
37.035,38.788
36.917,38.673
36.807,38.553
36.704,38.43
36.61,38.302
36.523,38.173
36.446,38.044
36.378,37.917
36.319,37.793
36.267,37.673
36.223,37.557
36.188,37.446
36.16,37.341
36.142,37.241
36.131,37.147
36.129,37.058
36.134,36.975
36.145,36.896
36.161,36.821
36.18,36.75
36.198,36.681
36.214,36.615
36.226,36.551
36.234,36.488
36.236,36.428
36.232,36.368
36.22,36.309
36.201,36.25
36.175,36.191
36.141,36.133
36.1,36.073
36.052,36.014
35.997,35.955
35.937,35.897
35.872,35.838
35.805,35.779
35.735,35.72
35.664,35.66
35.592,35.6
35.52,35.54
35.446,35.479
35.372,35.418
35.297,35.358
35.22,35.298
35.141,35.237
35.061,35.177
34.979,35.119
34.894,35.06
34.807,35
34.718,34.939
34.628,34.877
34.537,34.815
34.445,34.75
34.353,34.683
34.262,34.615
34.171,34.544
34.083,34.472
33.996,34.399
33.912,34.325
33.831,34.252
33.753,34.179
33.678,34.107
33.604,34.035
33.529,33.965
33.454,33.896
33.379,33.827
33.303,33.759
33.229,33.694
33.157,33.632
33.087,33.571
33.02,33.513
32.955,33.456
32.892,33.402
32.831,33.35
32.772,33.297
32.714,33.245
32.659,33.193
32.606,33.141
32.555,33.088
32.504,33.035
32.454,32.981
32.404,32.928
32.353,32.875
32.302,32.822
32.249,32.769
32.196,32.717
32.141,32.666
32.086,32.614
32.031,32.563
31.976,32.511
31.922,32.461
31.87,32.411
31.819,32.362
31.77,32.314
31.723,32.268
31.677,32.223
31.634,32.179
31.594,32.136
31.557,32.093
31.521,32.05
31.486,32.007
31.452,31.964
31.419,31.922
31.39,31.879
31.365,31.835
31.347,31.787
31.338,31.738
31.341,31.687
31.361,31.634
31.402,31.583
31.469,31.532
31.567,31.484
31.704,31.439
31.885,31.397
32.117,31.36
32.405,31.327
32.753,31.297
33.161,31.272
33.628,31.251
34.149,31.234
34.717,31.219
35.324,31.208
35.956,31.202
36.602,31.201
37.248,31.206
37.882,31.218
38.489,31.239
39.061,31.27
39.586,31.314
40.06,31.374
40.476,31.457
40.83,31.568
41.12,31.714
41.346,31.902
41.509,32.139
41.615,32.43
41.667,32.778
41.671,33.182
41.632,33.641
41.558,34.149
41.455,34.699
41.329,35.281
41.188,35.883
41.036,36.494
40.878,37.101
40.718,37.693
40.559,38.259
40.402,38.786
40.249,39.269
40.101,39.698
39.958,40.07
39.821,40.382
39.689,40.633
39.562,40.825
39.438,40.96
39.316,41.041
39.197,41.073
39.078,41.063
38.958,41.015
38.837,40.938
38.713,40.837
38.587,40.718
38.457,40.587
38.324,40.448
38.187,40.307
38.047,40.167
37.904,40.032
37.759,39.903
37.614,39.78
37.468,39.663
37.323,39.55
37.179,39.442
37.037,39.337
36.9,39.234
36.77,39.133
36.648,39.032
36.536,38.93
36.435,38.825
36.347,38.717
36.27,38.605
36.205,38.489
36.149,38.369
36.102,38.247
36.064,38.123
36.033,37.998
36.008,37.873
35.99,37.75
35.975,37.629
35.964,37.512
35.956,37.4
35.951,37.292
35.947,37.19
35.943,37.095
35.94,37.005
35.936,36.922
35.931,36.844
35.923,36.773
35.913,36.706
35.9,36.645
35.884,36.588
35.863,36.536
35.839,36.487
35.81,36.442
35.777,36.399
35.74,36.357
35.698,36.315
35.653,36.273
35.603,36.231
35.548,36.189
35.488,36.146
35.422,36.104
35.351,36.061
35.274,36.017
35.193,35.973
35.108,35.929
35.021,35.883
34.933,35.835
34.846,35.788
34.76,35.739
34.675,35.689
34.593,35.636
34.515,35.58
34.439,35.522
34.367,35.461
34.296,35.397
34.227,35.331
34.158,35.263
34.09,35.194
34.022,35.123
33.953,35.052
33.882,34.98
33.811,34.908
33.739,34.834
33.665,34.759
33.591,34.682
33.518,34.606
33.447,34.529
33.377,34.451
33.31,34.373
33.246,34.295
33.183,34.216
33.122,34.137
33.063,34.057
33.005,33.977
32.948,33.898
32.891,33.819
32.833,33.742
32.776,33.666
32.717,33.592
32.658,33.521
32.597,33.45
32.536,33.381
32.474,33.313
32.413,33.247
32.352,33.181
32.292,33.117
32.234,33.054
32.177,32.992
32.123,32.931
32.07,32.871
32.018,32.812
31.967,32.754
31.917,32.696
31.869,32.64
31.821,32.585
31.774,32.531
31.726,32.479
31.678,32.429
31.629,32.38
31.58,32.332
31.53,32.286
31.481,32.239
31.434,32.193
31.39,32.146
31.35,32.098
31.312,32.05
31.276,32.001
31.241,31.951
31.202,31.902
31.155,31.851
31.1,31.799
31.04,31.746
30.978,31.693
30.918,31.64
30.865,31.589
30.824,31.539
30.797,31.49
30.789,31.443
30.805,31.398
30.851,31.354
30.932,31.314
31.054,31.278
31.223,31.246
31.447,31.219
31.731,31.198
32.078,31.182
32.49,31.172
32.963,31.169
33.493,31.175
34.072,31.191
34.69,31.222
35.334,31.274
35.992,31.352
36.648,31.465
37.289,31.622
37.902,31.83
38.474,32.098
38.998,32.432
39.464,32.835
39.865,33.31
40.201,33.854
40.471,34.462
40.675,35.126
40.817,35.834
40.902,36.571
40.934,37.324
40.921,38.076
40.871,38.812
40.791,39.516
40.687,40.175
40.566,40.777
40.434,41.314
40.295,41.779
40.151,42.17
40.007,42.484
39.864,42.722
39.723,42.889
39.587,42.987
39.456,43.022
39.332,43.002
39.214,42.936
39.103,42.833
38.999,42.701
38.901,42.549
38.807,42.383
38.715,42.209
38.624,42.034
38.532,41.862
38.441,41.696
38.348,41.538
38.253,41.391
38.155,41.253
38.055,41.126
37.952,41.007
37.846,40.895
37.737,40.789
37.625,40.687
37.509,40.586
37.391,40.485
37.271,40.382
37.153,40.276
37.037,40.165
36.925,40.049
36.819,39.927
36.721,39.799
36.631,39.665
36.55,39.528
36.479,39.388
36.417,39.246
36.365,39.105
36.323,38.967
36.29,38.832
36.266,38.701
36.251,38.574
36.242,38.453
36.24,38.338
36.244,38.227
36.251,38.122
36.262,38.024
36.272,37.931
36.281,37.845
36.287,37.764
36.291,37.689
36.29,37.619
36.283,37.556
36.271,37.497
36.253,37.443
36.23,37.393
36.202,37.347
36.168,37.305
36.13,37.264
36.086,37.223
36.038,37.181
35.985,37.137
35.929,37.092
35.869,37.043
35.805,36.991
35.739,36.936
35.669,36.879
35.597,36.817
35.521,36.752
35.441,36.682
35.359,36.609
35.274,36.533
35.187,36.453
35.098,36.37
35.009,36.283
34.919,36.193
34.83,36.1
34.742,36.004
34.655,35.905
34.568,35.804
34.482,35.702
34.397,35.599
34.313,35.496
34.231,35.395
34.151,35.294
34.073,35.193
33.997,35.094
33.924,34.995
33.854,34.897
33.785,34.801
33.718,34.705
33.652,34.61
33.587,34.517
33.522,34.426
33.456,34.337
33.388,34.249
33.32,34.163
33.25,34.077
33.179,33.991
33.107,33.907
33.036,33.824
32.965,33.743
32.896,33.662
32.83,33.582
32.765,33.503
32.702,33.425
32.642,33.346
32.585,33.267
32.53,33.187
32.478,33.107
32.428,33.028
32.378,32.949
32.328,32.871
32.276,32.794
32.222,32.719
32.165,32.645
32.106,32.572
32.044,32.501
31.981,32.431
31.917,32.363
31.854,32.296
31.792,32.232
31.732,32.17
31.674,32.111
31.619,32.055
31.567,32.001
31.519,31.95
31.474,31.9
31.433,31.852
31.394,31.805
31.358,31.759
31.324,31.711
31.292,31.663
31.262,31.612
31.234,31.56
31.209,31.506
31.187,31.452
31.167,31.398
31.15,31.347
31.136,31.296
31.127,31.247
31.121,31.201
31.122,31.159
31.129,31.119
31.147,31.081
31.179,31.047
31.231,31.016
31.31,30.99
31.422,30.967
31.577,30.949
31.78,30.935
32.038,30.926
32.354,30.923
32.731,30.927
33.167,30.943
33.658,30.977
34.198,31.037
34.777,31.13
35.383,31.269
36.002,31.462
36.622,31.717
37.225,32.042
37.799,32.442
38.332,32.92
38.812,33.474
39.232,34.098
39.589,34.783
39.88,35.518
40.105,36.287
40.267,37.073
40.37,37.861
40.421,38.633
40.422,39.374
40.382,40.069
40.304,40.705
40.199,41.272
40.071,41.764
39.928,42.178
39.776,42.511
39.62,42.767
39.465,42.948
39.314,43.059
39.171,43.107
39.035,43.1
38.909,43.046
38.791,42.953
38.679,42.831
38.572,42.687
38.47,42.53
38.37,42.364
38.271,42.197
38.172,42.032
38.074,41.872
37.976,41.719
37.878,41.574
37.778,41.438
37.674,41.308
37.566,41.185
37.452,41.066
37.333,40.95
37.208,40.836
37.08,40.722
36.949,40.607
36.818,40.489
36.689,40.366
36.563,40.24
36.442,40.109
36.328,39.976
36.22,39.84
36.118,39.702
36.023,39.562
35.935,39.424
35.853,39.285
35.78,39.147
35.717,39.01
35.666,38.876
35.625,38.746
35.593,38.62
35.571,38.499
35.556,38.381
35.549,38.268
35.546,38.159
35.547,38.055
35.55,37.955
35.557,37.861
35.566,37.772
35.576,37.689
35.586,37.61
35.595,37.536
35.601,37.466
35.603,37.401
35.599,37.34
35.59,37.283
35.575,37.229
35.553,37.178
35.526,37.13
35.496,37.084
35.462,37.039
35.424,36.994
35.383,36.949
35.337,36.902
35.286,36.853
35.232,36.802
35.175,36.748
35.116,36.691
35.056,36.63
34.994,36.566
34.931,36.498
34.866,36.426
34.796,36.35
34.722,36.271
34.644,36.19
34.561,36.107
34.473,36.023
34.381,35.937
34.287,35.85
34.19,35.763
34.095,35.673
34.001,35.582
33.911,35.489
33.824,35.395
33.74,35.3
33.66,35.202
33.584,35.104
33.51,35.005
33.438,34.905
33.367,34.805
33.297,34.705
33.228,34.608
33.159,34.514
33.089,34.423
33.017,34.335
32.944,34.25
32.872,34.167
32.802,34.086
32.735,34.006
32.672,33.927
32.613,33.849
32.559,33.773
32.509,33.697
32.463,33.621
32.419,33.545
32.375,33.467
32.334,33.386
32.294,33.302
32.254,33.218
32.214,33.132
32.173,33.046
32.131,32.96
32.088,32.875
32.045,32.793
32,32.713
31.956,32.635
31.912,32.56
31.868,32.488
31.825,32.418
31.783,32.351
31.741,32.286
31.698,32.224
31.655,32.164
31.611,32.106
31.565,32.049
31.516,31.994
31.466,31.941
31.413,31.888
31.359,31.834
31.304,31.78
31.249,31.723
31.194,31.663
31.142,31.601
31.093,31.536
31.048,31.472
31.007,31.41
30.971,31.35
30.941,31.295
30.916,31.244
30.896,31.198
30.882,31.155
30.877,31.117
30.888,31.08
30.92,31.045
30.981,31.01
31.078,30.975
31.218,30.94
31.407,30.904
31.652,30.868
31.959,30.831
32.328,30.794
32.758,30.757
33.245,30.72
33.782,30.685
34.361,30.654
34.969,30.627
35.592,30.607
36.213,30.596
36.82,30.596
37.399,30.613
37.938,30.65
38.426,30.712
38.858,30.808
39.226,30.944
39.53,31.128
39.769,31.368
39.943,31.671
40.058,32.04
40.116,32.479
40.124,32.986
40.089,33.557
40.018,34.185
39.918,34.861
39.796,35.572
39.659,36.303
39.511,37.039
39.359,37.765
39.206,38.466
39.055,39.127
38.908,39.738
38.766,40.287
38.631,40.768
38.502,41.178
38.379,41.512
38.262,41.774
38.151,41.965
38.045,42.091
37.943,42.16
37.845,42.178
37.747,42.154
37.65,42.095
37.552,42.007
37.451,41.897
37.347,41.77
37.239,41.633
37.126,41.489
37.009,41.343
36.888,41.198
36.765,41.056
36.641,40.918
36.516,40.787
36.392,40.661
36.27,40.542
36.149,40.429
36.033,40.321
35.92,40.215
35.812,40.111
35.711,40.008
35.618,39.903
35.535,39.796
35.461,39.686
35.398,39.572
35.346,39.454
35.304,39.333
35.271,39.208
35.247,39.08
35.23,38.95
35.22,38.819
35.215,38.687
35.216,38.556
35.222,38.428
35.232,38.302
35.245,38.181
35.262,38.063
35.281,37.95
35.301,37.84
35.321,37.735
35.339,37.634
35.356,37.538
35.369,37.447
35.378,37.361
35.382,37.279
35.382,37.202
35.376,37.13
35.365,37.062
35.347,36.996
35.324,36.934
35.295,36.875
35.26,36.818
35.22,36.762
35.177,36.706
35.13,36.65
35.079,36.594
35.026,36.537
34.969,36.478
34.909,36.417
34.846,36.355
34.78,36.291
34.711,36.226
34.641,36.157
34.571,36.086
34.503,36.013
34.436,35.938
34.37,35.861
34.303,35.784
34.236,35.707
34.167,35.63
34.096,35.553
34.022,35.477
33.946,35.401
33.87,35.324
33.792,35.246
33.715,35.167
33.637,35.087
33.558,35.006
33.478,34.924
33.397,34.84
33.315,34.755
33.234,34.67
33.153,34.583
33.072,34.495
32.994,34.407
32.918,34.318
32.845,34.229
32.775,34.14
32.705,34.053
32.637,33.967
32.57,33.883
32.501,33.799
32.432,33.716
32.36,33.634
32.289,33.553
32.221,33.473
32.156,33.392
32.095,33.312
32.039,33.234
31.986,33.156
31.936,33.079
31.889,33.003
31.845,32.929
31.801,32.854
31.757,32.78
31.713,32.705
31.668,32.631
31.621,32.557
31.571,32.483
31.519,32.409
31.464,32.336
31.407,32.264
31.349,32.192
31.29,32.12
31.232,32.049
31.176,31.979
31.123,31.91
31.073,31.843
31.026,31.777
30.982,31.712
30.941,31.65
30.902,31.589
30.866,31.532
30.834,31.48
30.805,31.43
30.78,31.384
30.761,31.341
30.75,31.3
30.75,31.261
30.765,31.222
30.802,31.183
30.868,31.144
30.973,31.106
31.123,31.067
31.327,31.03
31.591,30.994
31.92,30.959
32.316,30.924
32.776,30.891
33.297,30.859
33.869,30.827
34.482,30.796
35.123,30.766
35.778,30.735
36.431,30.706
37.069,30.676
37.675,30.646
38.239,30.616
38.751,30.586
39.201,30.556
39.584,30.526
39.898,30.496
40.142,30.466
40.319,30.437
40.434,30.411
40.493,30.388
40.504,30.37
40.473,30.358
40.407,30.354
40.314,30.357
40.2,30.371
40.071,30.398
39.935,30.439
39.796,30.501
39.659,30.59
39.527,30.716
39.4,30.886
39.28,31.109
39.165,31.394
39.058,31.747
38.956,32.173
38.86,32.672
38.768,33.241
38.677,33.877
38.588,34.57
38.499,35.307
38.411,36.074
38.321,36.855
38.229,37.632
38.133,38.391
38.033,39.113
37.927,39.785
37.817,40.396
37.702,40.938
37.583,41.405
37.46,41.791
37.335,42.097
37.21,42.324
37.084,42.476
36.961,42.56
36.84,42.582
36.722,42.553
36.611,42.481
36.506,42.375
36.41,42.244
36.323,42.097
36.245,41.939
36.179,41.777
36.123,41.615
36.076,41.458
36.038,41.307
36.008,41.164
35.985,41.031
35.967,40.905
35.954,40.786
35.945,40.674
35.94,40.568
35.937,40.464
35.937,40.362
35.938,40.258
35.938,40.153
35.938,40.045
35.936,39.934
35.933,39.819
35.928,39.701
35.921,39.579
35.911,39.454
35.9,39.325
35.887,39.194
35.872,39.061
35.854,38.926
35.83,38.791
35.801,38.656
35.765,38.522
35.722,38.39
35.673,38.259
35.618,38.131
35.559,38.007
35.495,37.887
35.427,37.771
35.355,37.66
35.278,37.553
35.196,37.448
35.109,37.344
35.018,37.242
34.925,37.14
34.829,37.04
34.733,36.941
34.637,36.844
34.542,36.749
34.45,36.655
34.36,36.565
34.274,36.476
34.189,36.391
34.106,36.308
34.026,36.227
33.948,36.148
33.872,36.072
33.797,35.998
33.724,35.925
33.653,35.853
33.583,35.78
33.514,35.707
33.444,35.633
33.374,35.56
33.304,35.485
33.234,35.409
33.164,35.332
33.095,35.253
33.027,35.172
32.961,35.088
32.897,35.001
32.835,34.912
32.774,34.82
32.715,34.727
32.657,34.635
32.6,34.544
32.545,34.455
32.492,34.367
32.439,34.282
32.387,34.198
32.335,34.116
32.283,34.034
32.232,33.954
32.181,33.875
32.131,33.798
32.082,33.722
32.036,33.646
31.993,33.571
31.952,33.497
31.911,33.424
31.873,33.35
31.836,33.278
31.799,33.206
31.762,33.136
31.724,33.067
31.685,32.999
31.645,32.933
31.604,32.869
31.562,32.806
31.518,32.743
31.474,32.678
31.43,32.612
31.388,32.546
31.349,32.479
31.314,32.413
31.286,32.347
31.266,32.283
31.257,32.22
31.259,32.157
31.274,32.096
31.305,32.037
31.355,31.979
31.431,31.923
31.538,31.868
31.685,31.815
31.878,31.762
32.124,31.709
32.429,31.657
32.797,31.608
33.226,31.561
33.713,31.516
34.252,31.472
34.833,31.429
35.446,31.386
36.076,31.343
36.711,31.3
37.334,31.257
37.934,31.213
38.497,31.17
39.015,31.128
39.477,31.088
39.878,31.05
40.213,31.013
40.481,30.978
40.683,30.945
40.82,30.914
40.899,30.882
40.923,30.851
40.9,30.819
40.836,30.788
40.739,30.756
40.616,30.724
40.474,30.692
40.318,30.661
40.154,30.628
39.988,30.594
39.823,30.559
39.662,30.523
39.508,30.485
39.363,30.446
39.227,30.407
39.1,30.37
38.983,30.334
38.874,30.303
38.772,30.277
38.676,30.26
38.584,30.252
38.495,30.256
38.406,30.274
38.317,30.309
38.226,30.364
38.134,30.443
38.04,30.551
37.945,30.693
37.846,30.876
37.746,31.107
37.643,31.392
37.54,31.734
37.434,32.134
37.327,32.593
37.217,33.106
37.106,33.667
36.994,34.268
36.883,34.9
36.774,35.55
36.668,36.207
36.567,36.858
36.471,37.489
36.382,38.088
36.302,38.645
36.23,39.152
36.168,39.601
36.116,39.988
36.075,40.311
36.044,40.569
36.021,40.764
36.007,40.898
36.001,40.977
36.002,41.006
36.008,40.991
36.019,40.941
36.033,40.861
36.048,40.759
36.062,40.64
36.074,40.51
36.083,40.375
36.086,40.238
36.082,40.103
36.071,39.971
36.054,39.843
36.03,39.721
36,39.602
35.964,39.487
35.922,39.376
35.874,39.267
35.822,39.158
35.765,39.05
35.704,38.941
35.639,38.831
35.572,38.719
35.502,38.604
35.43,38.488
35.357,38.371
35.283,38.254
35.208,38.135
35.132,38.014
35.055,37.895
34.978,37.775
34.899,37.657
34.82,37.539
34.74,37.422
34.66,37.307
34.577,37.195
34.493,37.084
34.408,36.977
34.322,36.874
34.236,36.775
34.15,36.679
34.065,36.586
33.982,36.496
33.902,36.41
33.825,36.327
33.751,36.246
33.681,36.169
33.614,36.094
33.55,36.02
33.487,35.946
33.427,35.873
33.367,35.801
33.307,35.73
33.247,35.659
33.186,35.588
33.123,35.517
33.059,35.446
32.993,35.374
32.925,35.301
32.858,35.229
32.793,35.158
32.729,35.087
32.667,35.016
32.607,34.946
32.551,34.876
32.497,34.807
32.446,34.736
32.395,34.665
32.344,34.593
32.293,34.519
32.241,34.444
32.19,34.368
32.138,34.291
32.087,34.212
32.037,34.132
31.989,34.051
31.944,33.969
31.901,33.886
31.86,33.802
31.822,33.717
31.786,33.631
31.753,33.546
31.722,33.461
31.693,33.377
31.664,33.293
31.637,33.211
31.608,33.13
31.577,33.051
31.544,32.973
31.509,32.899
31.473,32.826
31.437,32.754
31.404,32.682
31.374,32.612
31.348,32.542
31.33,32.472
31.322,32.402
31.328,32.334
31.351,32.266
31.399,32.199
31.476,32.133
31.591,32.068
31.751,32.004
31.962,31.943
32.23,31.884
32.557,31.827
32.943,31.772
33.388,31.718
33.886,31.666
34.43,31.613
35.01,31.562
35.615,31.511
36.234,31.46
36.853,31.41
37.457,31.362
38.033,31.315
38.569,31.271
39.054,31.23
39.483,31.191
39.849,31.153
40.148,31.116
40.38,31.079
40.547,31.042
40.654,31.003
40.706,30.964
40.709,30.924
40.671,30.882
40.597,30.839
40.496,30.797
40.376,30.755
40.241,30.714
40.097,30.673
39.947,30.635
39.796,30.599
39.645,30.565
39.497,30.534
39.354,30.504
39.217,30.478
39.087,30.452
38.964,30.429
38.849,30.406
38.74,30.384
38.636,30.362
38.535,30.338
38.436,30.313
38.338,30.286
38.241,30.259
38.142,30.231
38.04,30.202
37.935,30.174
37.826,30.146
37.714,30.12
37.597,30.097
37.479,30.077
37.358,30.062
37.236,30.053
37.114,30.051
36.995,30.057
36.878,30.071
36.765,30.094
36.655,30.128
36.553,30.176
36.456,30.243
36.367,30.333
36.285,30.451
36.21,30.605
36.143,30.802
36.084,31.047
36.031,31.343
35.984,31.692
35.944,32.097
35.908,32.555
35.878,33.061
35.854,33.609
35.833,34.192
35.815,34.798
35.8,35.416
35.787,36.033
35.777,36.637
35.769,37.217
35.764,37.763
35.759,38.266
35.757,38.718
35.757,39.114
35.756,39.451
35.755,39.727
35.751,39.942
35.744,40.099
35.733,40.202
35.719,40.255
35.7,40.263
35.676,40.231
35.647,40.167
35.613,40.076
35.575,39.963
35.532,39.836
35.485,39.699
35.432,39.557
35.374,39.413
35.309,39.271
35.238,39.133
35.161,39
35.076,38.874
34.985,38.756
34.889,38.647
34.789,38.547
34.687,38.454
34.586,38.367
34.488,38.285
34.396,38.206
34.309,38.128
34.229,38.05
34.155,37.972
34.086,37.892
34.022,37.81
33.963,37.725
33.906,37.637
33.85,37.545
33.794,37.452
33.737,37.356
33.679,37.258
33.618,37.16
33.555,37.063
33.491,36.966
33.424,36.87
33.356,36.776
33.287,36.685
33.218,36.597
33.148,36.513
33.079,36.434
33.01,36.359
32.942,36.288
32.875,36.221
32.809,36.159
32.743,36.1
32.68,36.045
32.618,35.992
32.558,35.942
32.5,35.895
32.443,35.849
32.388,35.805
32.333,35.76
32.278,35.715
32.223,35.669
32.167,35.62
32.111,35.57
32.054,35.516
31.998,35.461
31.941,35.402
31.885,35.34
31.83,35.275
31.774,35.207
31.719,35.135
31.666,35.059
31.616,34.979
31.567,34.895
31.523,34.808
31.483,34.717
31.448,34.624
31.416,34.527
31.388,34.427
31.363,34.323
31.341,34.215
31.322,34.105
31.304,33.993
31.289,33.882
31.274,33.774
31.259,33.672
31.243,33.576
31.227,33.487
31.21,33.406
31.195,33.33
31.185,33.258
31.184,33.19
31.199,33.124
31.236,33.06
31.303,32.998
31.408,32.937
31.558,32.876
31.76,32.815
32.018,32.752
32.338,32.689
32.718,32.624
33.157,32.558
33.651,32.492
34.19,32.425
34.765,32.357
35.364,32.288
35.974,32.219
36.58,32.151
37.168,32.084
37.725,32.018
38.239,31.954
38.702,31.892
39.107,31.831
39.449,31.773
39.726,31.716
39.939,31.66
40.091,31.605
40.186,31.551
40.229,31.499
40.225,31.449
40.179,31.399
40.098,31.349
39.987,31.299
39.854,31.249
39.705,31.2
39.546,31.152
39.381,31.105
39.216,31.06
39.054,31.016
38.898,30.974
38.75,30.934
38.611,30.896
38.479,30.857
38.357,30.817
38.242,30.772
38.135,30.724
38.033,30.673
37.934,30.62
37.839,30.568
37.745,30.519
37.65,30.473
37.555,30.432
37.455,30.398
37.351,30.369
37.242,30.345
37.128,30.325
37.01,30.308
36.888,30.294
36.764,30.282
36.639,30.27
36.516,30.258
36.397,30.247
36.283,30.237
36.174,30.225
36.071,30.213
35.975,30.2
35.884,30.186
35.799,30.17
35.721,30.153
35.649,30.135
35.584,30.115
35.526,30.096
35.474,30.078
35.427,30.062
35.385,30.051
35.349,30.047
35.318,30.051
35.292,30.066
35.27,30.091
35.253,30.128
35.239,30.178
35.228,30.243
35.219,30.325
35.212,30.429
35.205,30.558
35.198,30.718
35.19,30.913
35.18,31.147
35.169,31.42
35.155,31.735
35.139,32.089
35.12,32.479
35.098,32.902
35.073,33.35
35.045,33.818
35.014,34.296
34.978,34.775
34.938,35.246
34.895,35.701
34.847,36.13
34.795,36.527
34.739,36.888
34.68,37.209
34.619,37.487
34.556,37.718
34.491,37.904
34.425,38.044
34.358,38.14
34.291,38.196
34.223,38.215
34.155,38.201
34.087,38.158
34.02,38.092
33.953,38.006
33.888,37.905
33.822,37.794
33.756,37.674
33.688,37.551
33.62,37.427
33.552,37.305
33.483,37.187
33.414,37.076
33.346,36.972
33.277,36.873
33.21,36.778
33.145,36.686
33.08,36.597
33.016,36.508
32.957,36.419
32.911,36.328
32.879,36.237
32.861,36.144
32.85,36.051
32.841,35.955
32.831,35.858
32.813,35.76
32.785,35.66
32.745,35.56
32.692,35.46
32.626,35.364
32.549,35.27
32.462,35.179
32.367,35.09
32.268,35.005
32.166,34.924
32.065,34.845
31.968,34.77
31.875,34.699
31.788,34.631
31.708,34.567
31.634,34.507
31.566,34.45
31.505,34.396
31.449,34.343
31.398,34.292
31.352,34.241
31.31,34.191
31.269,34.142
31.23,34.093
31.191,34.045
31.154,33.999
31.118,33.953
31.084,33.908
31.053,33.863
31.024,33.819
31,33.773
30.981,33.727
30.967,33.68
30.958,33.634
30.956,33.588
30.96,33.541
30.974,33.494
31,33.447
31.041,33.4
31.103,33.353
31.192,33.305
31.315,33.255
31.48,33.206
31.692,33.155
31.957,33.103
32.279,33.049
32.659,32.995
33.097,32.94
33.588,32.883
34.125,32.826
34.698,32.768
35.297,32.71
35.908,32.651
36.517,32.592
37.11,32.533
37.674,32.476
38.196,32.42
38.659,32.366
39.053,32.316
39.374,32.267
39.622,32.222
39.801,32.177
39.918,32.134
39.98,32.092
39.996,32.049
39.972,32.006
39.917,31.963
39.838,31.92
39.74,31.876
39.628,31.831
39.507,31.786
39.381,31.741
39.252,31.697
39.124,31.653
38.999,31.609
38.876,31.566
38.756,31.524
38.639,31.484
38.524,31.446
38.41,31.408
38.298,31.373
38.186,31.339
38.074,31.307
37.961,31.276
37.85,31.246
37.74,31.217
37.63,31.189
37.519,31.161
37.406,31.133
37.29,31.104
37.171,31.075
37.048,31.045
36.922,31.015
36.794,30.983
36.664,30.95
36.535,30.916
36.407,30.881
36.281,30.845
36.158,30.809
36.038,30.774
35.922,30.74
35.812,30.708
35.708,30.679
35.611,30.653
