Trial 3:3back,Trial 5:3back
34.846,33.055
34.795,33.012
34.738,32.976
34.677,32.948
34.61,32.929
34.539,32.921
34.464,32.925
34.386,32.944
34.305,32.982
34.223,33.042
34.139,33.129
34.053,33.247
33.967,33.4
33.882,33.594
33.798,33.83
33.716,34.111
33.634,34.438
33.556,34.808
33.48,35.217
33.408,35.658
33.339,36.123
33.274,36.6
33.21,37.077
33.147,37.543
33.084,37.985
33.021,38.392
32.958,38.757
32.895,39.071
32.833,39.33
32.771,39.53
32.709,39.67
32.647,39.752
32.583,39.779
32.52,39.755
32.457,39.687
32.394,39.58
32.332,39.442
32.271,39.278
32.212,39.097
32.156,38.905
32.101,38.708
32.05,38.511
32.001,38.319
31.954,38.134
31.91,37.96
31.868,37.797
31.829,37.645
31.793,37.506
31.759,37.378
31.728,37.261
31.698,37.151
31.67,37.047
31.645,36.947
31.623,36.849
31.606,36.753
31.597,36.656
31.599,36.56
31.615,36.464
31.649,36.369
31.705,36.274
31.791,36.18
31.91,36.086
32.069,35.992
32.274,35.899
32.528,35.806
32.835,35.713
33.196,35.62
33.61,35.527
34.075,35.436
34.585,35.348
35.133,35.263
35.711,35.181
36.308,35.104
36.912,35.032
37.513,34.965
38.1,34.903
38.663,34.845
39.192,34.792
39.68,34.744
40.12,34.703
40.506,34.667
40.835,34.639
41.105,34.618
41.317,34.604
41.471,34.595
41.571,34.59
41.618,34.587
41.618,34.588
41.575,34.591
41.495,34.597
41.382,34.606
41.243,34.618
41.082,34.632
40.906,34.649
40.719,34.669
40.525,34.691
40.329,34.713
40.132,34.734
39.937,34.754
39.745,34.77
39.558,34.783
39.375,34.794
39.198,34.803
39.026,34.809
38.858,34.813
38.695,34.813
38.536,34.809
38.381,34.801
38.23,34.79
38.081,34.775
37.936,34.756
37.792,34.732
37.65,34.703
37.507,34.67
37.364,34.632
37.219,34.591
37.073,34.547
36.925,34.5
36.775,34.45
36.624,34.397
36.473,34.341
36.322,34.283
36.172,34.223
36.023,34.163
35.877,34.102
35.735,34.041
35.596,33.979
35.461,33.916
35.331,33.853
35.206,33.788
35.089,33.724
34.98,33.661
34.881,33.598
34.793,33.536
34.718,33.474
34.656,33.412
34.608,33.35
34.574,33.289
34.552,33.231
34.54,33.175
34.537,33.123
34.542,33.074
34.553,33.029
34.57,32.987
34.591,32.948
34.617,32.914
34.646,32.886
34.676,32.864
34.708,32.85
34.74,32.847
34.77,32.857
34.798,32.88
34.823,32.921
34.845,32.982
34.861,33.069
34.871,33.187
34.876,33.339
34.875,33.531
34.868,33.766
34.854,34.047
34.834,34.374
34.808,34.745
34.775,35.156
34.736,35.599
34.692,36.064
34.643,36.539
34.591,37.013
34.536,37.473
34.479,37.908
34.419,38.31
34.357,38.669
34.295,38.979
34.231,39.235
34.165,39.433
34.098,39.573
34.03,39.657
33.959,39.687
33.886,39.667
33.811,39.602
33.734,39.499
33.654,39.364
33.574,39.205
33.492,39.027
33.409,38.837
33.327,38.643
33.245,38.45
33.163,38.261
33.083,38.082
33.003,37.914
32.924,37.761
32.846,37.62
32.77,37.491
32.694,37.37
32.62,37.256
32.548,37.145
32.478,37.036
32.412,36.926
32.348,36.817
32.288,36.709
32.231,36.601
32.176,36.495
32.122,36.388
32.07,36.281
32.019,36.172
31.971,36.062
31.924,35.951
31.881,35.839
31.84,35.728
31.801,35.618
31.762,35.512
31.725,35.41
31.688,35.311
31.652,35.216
31.617,35.125
31.582,35.036
31.55,34.951
31.518,34.869
31.488,34.79
31.458,34.717
31.43,34.651
31.402,34.594
31.376,34.544
31.35,34.504
31.328,34.471
31.31,34.447
31.296,34.429
31.289,34.418
31.29,34.412
31.302,34.412
31.328,34.419
31.373,34.433
31.441,34.451
31.537,34.475
31.667,34.502
31.837,34.532
32.053,34.563
32.319,34.593
32.64,34.622
33.017,34.647
33.448,34.67
33.932,34.69
34.461,34.706
35.029,34.717
35.626,34.725
36.242,34.727
36.866,34.725
37.484,34.717
38.086,34.706
38.66,34.691
39.198,34.673
39.689,34.654
40.128,34.634
40.509,34.612
40.83,34.588
41.09,34.563
41.288,34.535
41.426,34.504
41.507,34.469
41.533,34.43
41.512,34.389
41.448,34.345
41.349,34.302
41.219,34.257
41.065,34.214
40.892,34.17
40.704,34.126
40.505,34.08
40.299,34.033
40.088,33.984
39.876,33.933
39.665,33.881
39.457,33.828
39.252,33.775
39.05,33.722
38.853,33.669
38.66,33.616
38.471,33.563
38.287,33.509
38.106,33.454
37.928,33.398
37.753,33.34
37.581,33.282
37.41,33.222
37.241,33.162
37.074,33.101
36.91,33.041
36.747,32.983
36.586,32.928
36.426,32.878
36.269,32.831
36.114,32.789
35.963,32.75
35.814,32.716
35.669,32.683
35.529,32.653
35.397,32.626
35.273,32.601
35.157,32.58
35.049,32.564
34.947,32.556
34.851,32.557
34.761,32.573
34.676,32.606
34.598,32.658
34.525,32.733
34.459,32.835
34.401,32.97
34.35,33.142
34.308,33.356
34.275,33.612
34.253,33.913
34.241,34.257
34.239,34.642
34.248,35.062
34.267,35.51
34.296,35.978
34.333,36.456
34.376,36.934
34.424,37.399
34.476,37.841
34.531,38.251
34.587,38.62
34.642,38.942
34.695,39.211
34.744,39.423
34.788,39.576
34.826,39.671
34.857,39.708
34.881,39.692
34.896,39.629
34.903,39.526
34.901,39.389
34.889,39.227
34.87,39.047
34.842,38.855
34.807,38.657
34.764,38.457
34.715,38.261
34.66,38.071
34.603,37.887
34.543,37.712
34.481,37.546
34.419,37.39
34.356,37.245
34.293,37.108
34.23,36.98
34.166,36.86
34.101,36.746
34.034,36.637
33.966,36.531
33.896,36.427
33.825,36.324
33.753,36.221
33.68,36.118
33.608,36.015
33.535,35.912
33.462,35.809
33.388,35.704
33.314,35.599
33.238,35.491
33.161,35.383
33.083,35.276
33.006,35.17
32.93,35.067
32.856,34.969
32.785,34.876
32.716,34.789
32.648,34.709
32.583,34.635
32.519,34.568
32.457,34.507
32.397,34.454
32.339,34.407
32.286,34.368
32.236,34.338
32.19,34.316
32.148,34.303
32.11,34.299
32.074,34.302
32.041,34.314
32.009,34.331
31.978,34.355
31.948,34.382
31.919,34.414
31.891,34.45
31.863,34.488
31.836,34.527
31.809,34.566
31.782,34.603
31.756,34.637
31.729,34.667
31.704,34.693
31.682,34.714
31.663,34.729
31.651,34.738
31.649,34.741
31.661,34.74
31.689,34.735
31.74,34.728
31.819,34.719
31.93,34.707
32.079,34.693
32.271,34.676
32.511,34.655
32.801,34.631
33.144,34.602
33.539,34.569
33.986,34.532
34.479,34.49
35.013,34.445
35.58,34.397
36.169,34.347
36.771,34.293
37.373,34.238
37.966,34.181
38.537,34.124
39.077,34.066
39.577,34.009
40.027,33.952
40.423,33.898
40.759,33.847
41.034,33.799
41.248,33.753
41.402,33.71
41.498,33.668
41.539,33.627
41.531,33.586
41.48,33.546
41.391,33.506
41.272,33.466
41.127,33.426
40.964,33.384
40.787,33.34
40.6,33.294
40.407,33.245
40.209,33.194
40.011,33.141
39.813,33.088
39.616,33.035
39.422,32.984
39.229,32.935
39.037,32.888
38.846,32.842
38.655,32.798
38.464,32.755
38.274,32.715
38.084,32.679
37.896,32.648
37.708,32.624
37.523,32.611
37.338,32.608
37.154,32.62
36.971,32.647
36.789,32.695
36.608,32.765
36.429,32.86
36.252,32.984
36.076,33.14
35.903,33.331
35.734,33.562
35.569,33.833
35.408,34.147
35.253,34.501
35.106,34.893
34.966,35.318
34.833,35.769
34.71,36.238
34.597,36.714
34.495,37.187
34.404,37.645
34.326,38.077
34.261,38.472
34.208,38.822
34.169,39.119
34.142,39.361
34.128,39.544
34.125,39.668
34.133,39.736
34.151,39.752
34.178,39.72
34.213,39.647
34.254,39.539
34.301,39.404
34.353,39.248
34.407,39.075
34.462,38.891
34.517,38.7
34.57,38.508
34.62,38.316
34.667,38.128
34.71,37.946
34.749,37.771
34.785,37.605
34.816,37.448
34.843,37.3
34.864,37.161
34.88,37.03
34.89,36.906
34.893,36.787
34.89,36.671
34.879,36.558
34.861,36.445
34.836,36.334
34.805,36.224
34.766,36.115
34.722,36.007
34.671,35.9
34.614,35.794
34.553,35.688
34.488,35.583
34.42,35.478
34.35,35.374
34.278,35.27
34.205,35.166
34.132,35.064
34.057,34.964
33.983,34.868
33.908,34.777
33.832,34.693
33.756,34.614
33.679,34.543
33.602,34.478
33.524,34.421
33.448,34.372
33.372,34.331
33.298,34.3
33.224,34.279
33.152,34.267
33.079,34.264
33.007,34.269
32.935,34.28
32.864,34.298
32.795,34.319
32.729,34.342
32.664,34.367
32.602,34.392
32.543,34.419
32.485,34.447
32.429,34.476
32.374,34.507
32.32,34.538
32.266,34.57
32.214,34.601
32.163,34.631
32.113,34.659
32.064,34.685
32.016,34.709
31.969,34.729
31.923,34.745
31.877,34.754
31.833,34.757
31.79,34.753
31.75,34.741
31.714,34.723
31.683,34.699
31.658,34.669
31.642,34.635
31.637,34.597
31.646,34.555
31.674,34.51
31.725,34.462
31.804,34.412
31.917,34.361
32.069,34.309
32.266,34.257
32.511,34.204
32.81,34.151
33.163,34.097
33.571,34.041
34.032,33.982
34.54,33.922
35.089,33.862
35.67,33.802
36.274,33.743
36.889,33.686
37.502,33.633
38.102,33.581
38.677,33.531
39.216,33.482
39.71,33.433
40.153,33.384
40.54,33.336
40.868,33.288
41.136,33.242
41.344,33.196
41.495,33.149
41.591,33.103
41.636,33.056
41.637,33.008
41.597,32.959
41.524,32.912
41.423,32.865
41.299,32.82
41.156,32.777
40.999,32.737
40.831,32.7
40.654,32.666
40.47,32.637
40.282,32.611
40.089,32.59
39.892,32.575
39.693,32.566
39.492,32.566
39.292,32.578
39.094,32.605
38.898,32.653
38.706,32.725
38.52,32.826
38.341,32.958
38.17,33.125
38.004,33.329
37.843,33.574
37.687,33.861
37.532,34.192
37.378,34.566
37.224,34.98
37.07,35.431
36.917,35.91
36.762,36.406
36.607,36.909
36.451,37.406
36.295,37.885
36.138,38.332
35.983,38.737
35.827,39.092
35.673,39.39
35.521,39.627
35.372,39.801
35.227,39.916
35.089,39.973
34.958,39.979
34.837,39.94
34.728,39.862
34.631,39.751
34.547,39.612
34.476,39.453
34.418,39.278
34.373,39.091
34.341,38.898
34.322,38.703
34.313,38.51
34.316,38.323
34.328,38.145
34.349,37.977
34.377,37.821
34.409,37.676
34.442,37.54
34.475,37.413
34.508,37.291
34.539,37.176
34.569,37.064
34.6,36.956
34.63,36.85
34.66,36.747
34.687,36.644
34.712,36.542
34.735,36.441
34.754,36.339
34.77,36.236
34.781,36.132
34.788,36.026
34.789,35.918
34.785,35.808
34.774,35.697
34.757,35.587
34.733,35.477
34.704,35.37
34.669,35.265
34.628,35.163
34.582,35.064
34.532,34.97
34.478,34.882
34.42,34.801
34.359,34.729
34.295,34.666
34.228,34.613
34.158,34.568
34.084,34.532
34.007,34.506
33.927,34.489
33.845,34.479
33.763,34.477
33.679,34.482
33.594,34.493
33.509,34.509
33.424,34.531
33.339,34.556
33.255,34.582
33.172,34.61
33.09,34.638
33.01,34.666
32.932,34.695
32.857,34.723
32.786,34.75
32.72,34.775
32.658,34.798
32.599,34.816
32.543,34.83
32.489,34.839
32.435,34.843
32.382,34.841
32.33,34.835
32.278,34.825
32.226,34.81
32.173,34.793
32.121,34.771
32.069,34.744
32.017,34.712
31.966,34.675
31.915,34.634
31.864,34.59
31.814,34.543
31.765,34.495
31.718,34.445
31.673,34.393
31.631,34.339
31.592,34.283
31.558,34.227
31.528,34.17
31.505,34.114
31.49,34.057
31.486,34
31.496,33.943
31.524,33.885
31.575,33.828
31.654,33.772
31.767,33.717
31.92,33.664
32.119,33.613
32.369,33.563
32.672,33.514
33.032,33.465
33.448,33.418
33.918,33.371
34.438,33.324
35.001,33.275
35.598,33.227
36.219,33.179
36.851,33.131
37.483,33.085
38.102,33.038
38.698,32.993
39.26,32.949
39.778,32.906
40.245,32.864
40.656,32.823
41.007,32.783
41.296,32.744
41.521,32.707
41.685,32.671
41.789,32.635
41.839,32.601
41.838,32.567
41.792,32.536
41.706,32.507
41.587,32.483
41.441,32.466
41.273,32.46
41.088,32.466
40.891,32.487
40.689,32.528
40.483,32.591
40.278,32.682
40.076,32.804
39.879,32.96
39.687,33.153
39.502,33.386
39.322,33.663
39.149,33.985
38.98,34.351
38.815,34.759
38.652,35.203
38.491,35.676
38.329,36.169
38.167,36.67
38.006,37.168
37.845,37.65
37.685,38.107
37.526,38.526
37.369,38.9
37.215,39.221
37.063,39.485
36.913,39.69
36.766,39.836
36.62,39.925
36.475,39.96
36.331,39.946
36.185,39.889
36.039,39.793
35.893,39.666
35.748,39.514
35.607,39.345
35.47,39.163
35.338,38.975
35.212,38.784
35.094,38.595
34.985,38.41
34.885,38.231
34.793,38.06
34.71,37.897
34.635,37.741
34.57,37.594
34.513,37.455
34.466,37.323
34.43,37.198
34.404,37.079
34.389,36.964
34.385,36.852
34.389,36.741
34.402,36.631
34.422,36.521
34.448,36.41
34.477,36.3
34.51,36.189
34.545,36.079
34.582,35.969
34.62,35.86
34.658,35.75
34.695,35.641
34.73,35.53
34.762,35.42
34.789,35.309
34.811,35.201
34.825,35.095
34.832,34.993
34.831,34.898
34.82,34.809
34.8,34.729
34.771,34.656
34.735,34.591
34.692,34.534
34.644,34.485
34.59,34.442
34.533,34.406
34.473,34.378
34.411,34.359
34.347,34.349
34.281,34.348
34.214,34.356
34.145,34.372
34.075,34.395
34.004,34.423
33.931,34.453
33.858,34.486
33.783,34.519
33.707,34.554
33.63,34.588
33.551,34.622
33.471,34.655
33.39,34.687
33.308,34.716
33.225,34.742
33.141,34.763
33.057,34.779
32.973,34.788
32.89,34.79
32.809,34.786
32.729,34.776
32.651,34.761
32.575,34.743
32.501,34.722
32.429,34.699
32.359,34.673
32.291,34.645
32.225,34.614
32.161,34.579
32.098,34.541
32.037,34.499
31.978,34.454
31.921,34.407
31.866,34.359
31.814,34.31
31.763,34.258
31.715,34.205
31.668,34.15
31.624,34.094
31.581,34.037
31.54,33.98
31.499,33.922
31.46,33.866
31.421,33.812
31.382,33.76
31.344,33.71
31.308,33.663
31.275,33.62
31.246,33.578
31.221,33.536
31.203,33.493
31.195,33.448
31.2,33.401
31.222,33.352
31.268,33.304
31.341,33.255
31.448,33.208
31.595,33.162
31.788,33.119
32.03,33.079
32.326,33.041
32.678,33.005
33.086,32.972
33.549,32.939
34.061,32.908
34.618,32.878
35.211,32.848
35.831,32.819
36.467,32.79
37.107,32.76
37.739,32.731
38.351,32.704
38.932,32.681
39.473,32.665
39.964,32.658
40.4,32.666
40.774,32.691
41.083,32.738
41.327,32.811
41.505,32.913
41.621,33.047
41.678,33.217
41.683,33.426
41.641,33.675
41.56,33.967
41.446,34.304
41.305,34.685
41.143,35.106
40.964,35.56
40.773,36.04
40.573,36.536
40.368,37.035
40.16,37.527
39.952,37.999
39.742,38.441
39.533,38.843
39.327,39.199
39.123,39.501
38.924,39.745
38.729,39.93
38.539,40.055
38.354,40.125
38.174,40.143
37.996,40.112
37.821,40.04
37.648,39.932
37.477,39.795
37.307,39.636
37.139,39.461
36.971,39.275
36.804,39.083
36.638,38.89
36.473,38.697
36.309,38.502
36.146,38.306
35.985,38.111
35.824,37.922
35.666,37.74
35.51,37.569
35.357,37.409
35.208,37.262
35.066,37.127
34.93,37.004
34.804,36.891
34.686,36.787
34.578,36.69
34.481,36.597
34.394,36.507
34.319,36.418
34.255,36.329
34.201,36.239
34.158,36.148
34.125,36.055
34.102,35.96
34.087,35.863
34.082,35.763
34.086,35.661
34.097,35.557
34.116,35.452
34.141,35.346
34.172,35.243
34.206,35.142
34.244,35.045
34.284,34.956
34.326,34.874
34.367,34.801
34.406,34.738
34.444,34.684
34.479,34.639
34.511,34.603
34.539,34.575
34.564,34.557
34.586,34.548
34.603,34.546
34.615,34.553
34.622,34.568
34.622,34.588
34.616,34.614
34.603,34.641
34.582,34.672
34.554,34.703
34.519,34.735
34.48,34.766
34.436,34.796
34.387,34.826
34.334,34.854
34.278,34.879
34.218,34.9
34.153,34.916
34.083,34.927
34.008,34.933
33.928,34.933
33.845,34.927
33.759,34.914
33.672,34.896
33.587,34.874
33.503,34.847
33.422,34.818
33.342,34.787
33.265,34.755
33.189,34.722
33.115,34.687
33.042,34.651
32.97,34.612
32.898,34.571
32.828,34.529
32.761,34.485
32.696,34.44
32.635,34.396
32.577,34.352
32.522,34.307
32.47,34.259
32.419,34.209
32.369,34.156
32.319,34.099
32.27,34.04
32.221,33.98
32.174,33.919
32.128,33.859
32.082,33.801
32.037,33.745
31.993,33.691
31.949,33.638
31.905,33.584
31.862,33.531
31.821,33.478
31.781,33.425
31.744,33.374
31.708,33.323
31.675,33.273
31.644,33.223
31.614,33.172
31.586,33.121
31.559,33.069
31.535,33.017
31.516,32.966
31.504,32.917
31.501,32.872
31.512,32.83
31.54,32.793
31.589,32.759
31.665,32.73
31.774,32.705
31.922,32.685
32.114,32.674
32.356,32.672
32.651,32.684
33.002,32.712
33.409,32.761
33.87,32.833
34.381,32.932
34.936,33.06
35.526,33.224
36.139,33.425
36.765,33.667
37.39,33.952
38.001,34.282
38.587,34.655
39.139,35.069
39.649,35.517
40.109,35.993
40.515,36.485
40.863,36.984
41.152,37.478
41.38,37.955
41.549,38.404
41.66,38.816
41.716,39.182
41.719,39.498
41.674,39.758
41.587,39.959
41.464,40.102
41.311,40.186
41.133,40.216
40.938,40.195
40.729,40.129
40.513,40.023
40.292,39.886
40.07,39.723
39.849,39.543
39.632,39.352
39.419,39.154
39.211,38.956
39.008,38.76
38.807,38.57
38.608,38.387
38.411,38.21
38.215,38.041
38.019,37.881
37.825,37.731
37.632,37.589
37.441,37.456
37.251,37.333
37.062,37.216
36.875,37.107
36.691,37.002
36.509,36.902
36.329,36.804
36.151,36.708
35.975,36.612
35.801,36.513
35.631,36.41
35.465,36.305
35.302,36.197
35.144,36.088
34.991,35.977
34.844,35.865
34.702,35.754
34.568,35.644
34.442,35.536
34.326,35.43
34.222,35.328
34.131,35.23
34.053,35.137
33.989,35.05
33.939,34.97
33.904,34.899
33.883,34.837
33.875,34.784
33.88,34.739
33.895,34.702
33.92,34.672
33.952,34.649
33.991,34.632
34.036,34.623
34.085,34.619
34.137,34.622
34.191,34.631
34.247,34.646
34.303,34.665
34.36,34.688
34.416,34.713
34.471,34.739
34.524,34.765
34.572,34.791
34.616,34.817
34.654,34.842
34.684,34.868
34.707,34.891
34.721,34.912
34.726,34.93
34.723,34.943
34.711,34.951
34.691,34.955
34.665,34.953
34.633,34.947
34.596,34.935
34.554,34.918
34.508,34.896
34.456,34.868
34.401,34.836
34.342,34.798
34.279,34.757
34.214,34.712
34.147,34.664
34.079,34.614
34.01,34.564
33.939,34.513
33.868,34.462
33.795,34.41
33.721,34.358
33.646,34.306
33.57,34.253
33.494,34.199
33.418,34.147
33.345,34.094
33.273,34.043
33.204,33.991
33.137,33.939
33.07,33.886
33.003,33.832
32.936,33.778
32.868,33.723
32.799,33.668
32.73,33.614
32.661,33.56
32.594,33.508
32.528,33.457
32.465,33.406
32.404,33.357
32.346,33.308
32.29,33.26
32.236,33.214
32.183,33.169
32.132,33.127
32.084,33.088
32.038,33.049
31.995,33.012
31.954,32.975
31.915,32.938
31.878,32.902
31.842,32.867
31.807,32.833
31.774,32.8
31.743,32.77
31.716,32.742
31.694,32.718
31.681,32.699
31.679,32.685
31.692,32.679
31.723,32.685
31.778,32.705
31.86,32.744
31.975,32.807
32.129,32.898
32.326,33.022
32.57,33.183
32.866,33.384
33.215,33.628
33.619,33.918
34.075,34.254
34.58,34.634
35.127,35.057
35.709,35.518
36.316,36.009
36.938,36.521
37.562,37.043
38.178,37.563
38.774,38.069
39.339,38.545
39.863,38.981
40.338,39.367
40.756,39.695
41.114,39.961
41.407,40.162
41.636,40.3
41.801,40.377
41.905,40.398
41.951,40.369
41.945,40.297
41.893,40.19
41.801,40.056
41.677,39.9
41.527,39.73
41.357,39.551
41.175,39.366
40.983,39.18
40.785,38.994
40.583,38.814
40.38,38.639
40.176,38.471
39.971,38.311
39.765,38.159
39.558,38.015
39.352,37.878
39.148,37.749
38.945,37.627
38.745,37.51
38.55,37.395
38.359,37.283
38.174,37.172
37.994,37.061
37.82,36.951
37.649,36.841
37.481,36.731
37.314,36.623
37.148,36.515
36.981,36.407
36.813,36.299
36.644,36.19
36.475,36.081
36.306,35.971
36.136,35.862
35.967,35.754
35.8,35.65
35.635,35.55
35.474,35.454
35.318,35.362
35.168,35.276
35.027,35.197
34.896,35.124
34.777,35.057
34.668,34.998
34.571,34.947
34.486,34.904
34.412,34.869
34.349,34.84
34.297,34.819
34.257,34.804
34.229,34.796
34.214,34.793
34.211,34.795
34.219,34.802
34.237,34.813
34.265,34.828
34.3,34.845
34.341,34.863
34.386,34.882
34.434,34.901
34.483,34.921
34.533,34.939
34.58,34.955
34.626,34.968
34.668,34.976
34.707,34.98
34.741,34.979
34.77,34.973
34.795,34.964
34.815,34.951
34.831,34.935
34.841,34.916
34.846,34.892
34.846,34.866
34.84,34.837
34.827,34.805
34.806,34.77
34.777,34.731
34.74,34.689
34.696,34.645
34.645,34.597
34.588,34.548
34.525,34.496
34.457,34.443
34.386,34.388
34.312,34.331
34.235,34.272
34.157,34.214
34.077,34.156
33.995,34.101
33.913,34.049
33.831,33.998
33.749,33.949
33.668,33.902
33.589,33.856
33.511,33.81
33.435,33.765
33.36,33.721
33.287,33.677
33.214,33.634
33.143,33.591
33.072,33.548
33.002,33.504
32.934,33.46
32.866,33.414
32.801,33.365
32.737,33.314
32.674,33.261
32.613,33.207
32.553,33.155
32.495,33.104
32.437,33.055
32.381,33.008
32.326,32.963
32.273,32.92
32.22,32.878
32.169,32.838
32.119,32.798
32.071,32.76
32.023,32.723
31.977,32.687
31.93,32.653
31.885,32.621
31.84,32.591
31.796,32.565
31.754,32.544
31.715,32.531
31.678,32.53
31.646,32.544
31.62,32.574
31.601,32.623
31.593,32.695
31.597,32.792
31.617,32.92
31.657,33.08
31.722,33.277
31.819,33.515
31.952,33.795
32.128,34.118
32.354,34.485
32.635,34.893
32.973,35.338
33.371,35.815
33.827,36.314
34.338,36.825
34.899,37.337
35.5,37.838
36.133,38.317
36.784,38.763
37.442,39.167
38.093,39.521
38.723,39.819
39.321,40.057
39.878,40.234
40.384,40.35
40.834,40.407
41.223,40.409
41.547,40.363
41.807,40.275
42.004,40.152
42.139,40.003
42.216,39.834
42.239,39.654
42.215,39.467
42.148,39.279
42.046,39.095
41.912,38.916
41.754,38.744
41.576,38.58
41.385,38.422
41.184,38.271
40.976,38.126
40.766,37.988
40.556,37.855
40.349,37.729
40.146,37.608
39.948,37.492
39.756,37.38
39.569,37.272
39.389,37.165
39.214,37.059
39.044,36.951
38.877,36.843
38.713,36.733
38.551,36.622
38.389,36.512
38.228,36.401
38.066,36.291
37.904,36.181
37.741,36.068
37.578,35.954
37.415,35.838
37.253,35.721
37.093,35.604
36.934,35.488
36.777,35.377
36.619,35.273
36.462,35.177
36.306,35.09
36.152,35.013
36,34.946
35.849,34.89
35.7,34.845
35.554,34.811
35.412,34.787
35.275,34.772
35.145,34.766
35.023,34.767
34.912,34.771
34.813,34.78
34.727,34.792
34.654,34.807
34.594,34.823
34.548,34.839
34.516,34.855
34.495,34.87
34.485,34.884
34.484,34.897
34.492,34.906
34.507,34.913
34.529,34.917
34.557,34.919
34.589,34.919
34.626,34.917
34.664,34.913
34.704,34.906
34.742,34.897
34.778,34.885
34.811,34.87
34.838,34.852
34.86,34.831
34.876,34.806
34.886,34.778
34.891,34.745
34.892,34.708
34.888,34.667
34.881,34.623
34.869,34.577
34.853,34.528
34.831,34.477
34.803,34.425
34.769,34.372
34.731,34.318
34.688,34.265
34.641,34.211
34.589,34.159
34.534,34.107
34.474,34.056
34.41,34.004
34.341,33.953
34.269,33.902
34.193,33.852
34.115,33.801
34.034,33.749
33.952,33.696
33.87,33.642
33.787,33.586
33.705,33.529
33.623,33.472
33.543,33.414
33.464,33.357
33.386,33.302
33.31,33.249
33.236,33.198
33.164,33.15
33.093,33.103
33.023,33.059
32.954,33.015
32.885,32.973
32.817,32.931
32.75,32.888
32.683,32.844
32.616,32.8
32.551,32.756
32.487,32.712
32.424,32.67
32.363,32.629
32.303,32.588
32.244,32.548
32.187,32.509
32.13,32.473
32.075,32.44
32.021,32.411
31.969,32.389
31.918,32.375
31.87,32.369
31.824,32.374
31.78,32.391
31.738,32.423
31.698,32.474
31.66,32.548
31.625,32.648
31.594,32.779
31.569,32.942
31.551,33.141
31.543,33.379
31.55,33.658
31.576,33.979
31.627,34.343
31.708,34.749
31.823,35.194
31.98,35.672
32.182,36.177
32.436,36.698
32.744,37.225
33.108,37.745
33.529,38.245
34.004,38.714
34.529,39.141
35.097,39.519
35.701,39.841
36.329,40.102
36.973,40.299
37.619,40.434
38.257,40.509
38.873,40.529
39.456,40.498
39.997,40.423
40.487,40.312
40.92,40.17
41.29,40.005
41.596,39.822
41.837,39.629
42.015,39.431
42.129,39.233
42.185,39.038
42.186,38.85
42.138,38.671
42.049,38.503
41.924,38.346
41.771,38.199
41.596,38.062
41.403,37.932
41.199,37.809
40.988,37.69
40.772,37.576
40.556,37.464
40.343,37.354
40.134,37.246
39.932,37.137
39.735,37.027
39.545,36.914
39.362,36.799
39.184,36.683
39.012,36.567
38.844,36.451
38.681,36.335
38.522,36.22
38.365,36.108
38.209,35.998
38.053,35.891
37.897,35.787
37.74,35.687
37.582,35.592
37.424,35.502
37.264,35.417
37.103,35.338
36.941,35.266
36.778,35.2
36.614,35.14
36.449,35.084
36.284,35.033
36.119,34.986
35.955,34.944
35.793,34.908
35.633,34.879
35.477,34.856
35.325,34.841
35.18,34.832
35.043,34.829
34.916,34.831
34.8,34.837
34.697,34.846
34.607,34.857
34.531,34.87
34.468,34.884
34.417,34.9
34.377,34.917
34.349,34.935
34.331,34.954
34.323,34.972
34.324,34.988
34.336,35.001
34.357,35.01
34.387,35.013
34.422,35.011
34.462,35.004
34.504,34.993
34.547,34.977
34.588,34.957
34.625,34.931
34.659,34.901
34.688,34.867
34.713,34.828
34.732,34.785
34.746,34.738
34.755,34.688
34.758,34.637
34.755,34.584
34.745,34.532
34.729,34.479
34.707,34.426
34.68,34.374
34.647,34.322
34.611,34.268
34.57,34.214
34.526,34.159
34.48,34.103
34.432,34.048
34.382,33.992
34.331,33.934
34.279,33.876
34.225,33.817
34.168,33.755
34.108,33.691
34.045,33.626
33.978,33.563
33.908,33.501
33.835,33.442
33.76,33.386
33.684,33.334
33.606,33.284
33.529,33.238
33.451,33.195
33.371,33.154
33.291,33.114
33.21,33.075
33.129,33.037
33.048,32.998
32.967,32.96
32.887,32.921
32.809,32.883
32.733,32.844
32.658,32.805
32.586,32.767
32.517,32.729
32.449,32.691
32.385,32.653
32.322,32.616
32.261,32.582
32.202,32.549
32.146,32.52
32.091,32.495
32.038,32.473
31.988,32.455
31.941,32.444
31.895,32.441
31.851,32.449
31.807,32.469
31.764,32.506
31.72,32.564
31.677,32.645
31.634,32.753
31.593,32.89
31.555,33.062
31.522,33.273
31.494,33.524
31.474,33.818
31.463,34.158
31.465,34.542
31.485,34.969
31.528,35.435
31.599,35.931
31.704,36.448
31.85,36.974
32.04,37.497
32.281,38.005
32.576,38.485
32.926,38.926
33.331,39.321
33.791,39.663
34.301,39.947
34.856,40.169
35.448,40.33
36.066,40.431
36.702,40.477
37.343,40.471
37.976,40.419
38.592,40.328
39.177,40.204
39.723,40.054
40.221,39.884
40.662,39.7
41.042,39.508
41.357,39.312
41.606,39.118
41.788,38.929
41.905,38.747
41.961,38.573
41.963,38.408
41.915,38.25
41.826,38.101
41.702,37.959
41.55,37.824
41.375,37.694
41.183,37.567
40.978,37.444
40.765,37.322
40.546,37.202
40.324,37.083
40.102,36.964
39.881,36.845
39.662,36.726
39.448,36.607
39.236,36.488
39.03,36.37
38.828,36.254
38.631,36.138
38.438,36.024
38.248,35.911
38.061,35.8
37.876,35.691
37.693,35.584
37.51,35.48
37.329,35.38
37.148,35.285
36.969,35.196
36.792,35.114
36.616,35.039
36.443,34.971
36.271,34.913
36.102,34.861
35.935,34.817
35.771,34.78
35.61,34.75
35.452,34.728
35.299,34.714
35.151,34.706
35.009,34.704
34.874,34.707
34.749,34.713
34.633,34.724
34.529,34.737
34.436,34.754
34.355,34.774
34.287,34.796
34.232,34.819
34.19,34.842
34.16,34.866
34.142,34.889
34.135,34.91
34.138,34.929
34.152,34.944
34.174,34.957
34.204,34.965
34.24,34.971
34.281,34.974
34.326,34.976
34.373,34.975
34.421,34.973
34.468,34.968
34.515,34.958
34.561,34.944
34.604,34.925
34.646,34.902
34.683,34.874
34.717,34.841
34.746,34.802
34.768,34.757
34.785,34.707
34.794,34.652
34.797,34.592
34.792,34.529
34.78,34.465
34.761,34.399
34.735,34.334
34.703,34.269
34.665,34.205
34.622,34.142
34.573,34.081
34.521,34.019
34.465,33.958
34.406,33.898
34.344,33.841
34.279,33.789
34.212,33.74
34.144,33.694
34.073,33.651
34,33.611
33.926,33.572
33.85,33.534
33.773,33.496
33.697,33.456
33.622,33.417
33.548,33.377
33.476,33.337
33.406,33.295
33.337,33.252
33.269,33.208
33.201,33.163
33.135,33.117
33.071,33.07
33.007,33.025
32.945,32.98
32.884,32.938
32.824,32.898
32.763,32.861
32.701,32.828
32.638,32.797
32.574,32.769
32.511,32.746
32.448,32.729
32.387,32.721
32.329,32.722
32.272,32.737
32.219,32.768
32.168,32.819
32.121,32.891
32.075,32.988
32.031,33.114
31.989,33.272
31.949,33.464
31.911,33.696
31.875,33.969
31.842,34.285
31.812,34.643
31.785,35.043
31.763,35.478
31.745,35.943
31.735,36.428
31.736,36.925
31.751,37.422
31.784,37.908
31.84,38.372
31.924,38.803
32.043,39.193
32.203,39.535
32.411,39.824
32.671,40.056
32.986,40.23
33.356,40.345
33.78,40.405
34.255,40.414
34.775,40.377
35.334,40.298
35.923,40.185
36.532,40.043
37.149,39.879
37.763,39.699
38.363,39.508
38.939,39.312
39.481,39.114
39.98,38.918
40.43,38.727
40.823,38.544
41.158,38.369
41.43,38.203
41.64,38.046
41.789,37.899
41.88,37.759
41.917,37.628
41.905,37.502
41.848,37.381
41.752,37.263
41.622,37.146
41.466,37.03
41.288,36.915
41.092,36.801
40.882,36.688
40.664,36.575
40.439,36.462
40.212,36.349
39.985,36.235
39.76,36.121
39.539,36.006
39.324,35.892
39.115,35.779
38.913,35.669
38.715,35.563
38.523,35.461
38.334,35.366
38.15,35.276
37.97,35.194
37.791,35.119
37.614,35.051
37.438,34.99
37.263,34.937
37.088,34.894
36.913,34.858
36.74,34.83
36.568,34.81
36.398,34.796
36.229,34.788
36.062,34.786
35.896,34.789
35.732,34.797
35.571,34.809
35.413,34.824
35.26,34.841
35.113,34.858
34.974,34.877
34.845,34.895
34.727,34.913
34.622,34.929
34.53,34.944
34.452,34.957
34.387,34.969
34.335,34.978
34.296,34.986
34.268,34.992
34.251,34.996
34.245,34.996
34.249,34.992
34.261,34.982
34.281,34.966
34.308,34.945
34.341,34.919
34.379,34.888
34.42,34.853
34.464,34.815
34.509,34.773
34.555,34.729
34.6,34.682
34.644,34.633
34.686,34.581
34.725,34.527
34.761,34.472
34.791,34.416
34.817,34.36
34.838,34.305
34.854,34.25
34.865,34.194
34.87,34.138
34.87,34.081
34.863,34.024
34.851,33.968
34.833,33.912
34.809,33.856
34.78,33.801
34.745,33.746
34.704,33.692
34.658,33.638
34.606,33.585
34.549,33.532
34.488,33.48
34.422,33.43
34.354,33.381
34.283,33.333
34.209,33.286
34.132,33.242
34.054,33.2
33.975,33.158
33.895,33.117
33.817,33.076
33.739,33.036
33.662,32.996
33.586,32.956
33.512,32.916
33.439,32.876
33.368,32.837
33.299,32.8
33.233,32.767
33.169,32.737
33.106,32.713
33.045,32.695
32.986,32.684
32.929,32.682
32.873,32.691
32.818,32.712
32.763,32.75
32.708,32.807
32.652,32.887
32.596,32.993
32.539,33.131
32.483,33.307
32.426,33.524
32.37,33.787
32.313,34.096
32.256,34.451
32.201,34.851
32.146,35.291
32.094,35.766
32.043,36.268
31.996,36.786
31.953,37.311
31.915,37.828
31.882,38.326
31.856,38.793
31.838,39.219
31.83,39.595
31.834,39.915
31.854,40.174
31.895,40.371
31.962,40.505
32.061,40.58
32.2,40.6
32.383,40.571
32.615,40.498
32.9,40.39
33.242,40.252
33.639,40.092
34.091,39.915
34.592,39.727
35.139,39.532
35.722,39.336
36.331,39.142
36.955,38.952
37.583,38.768
38.203,38.592
38.802,38.425
39.371,38.266
39.899,38.116
40.378,37.975
40.801,37.842
41.165,37.718
41.466,37.6
41.704,37.487
41.88,37.377
41.995,37.27
42.054,37.163
42.061,37.055
42.021,36.946
41.939,36.833
41.823,36.718
41.678,36.601
41.512,36.485
41.328,36.368
41.133,36.253
40.93,36.141
40.723,36.03
40.514,35.921
40.307,35.814
40.101,35.709
39.897,35.607
39.696,35.511
39.497,35.42
39.302,35.337
39.109,35.261
38.92,35.195
38.735,35.137
38.554,35.088
38.376,35.043
38.201,35.001
38.028,34.959
37.858,34.917
37.688,34.877
37.519,34.841
37.35,34.813
37.181,34.792
37.013,34.781
36.844,34.778
36.676,34.784
36.51,34.798
36.345,34.819
36.183,34.846
36.024,34.877
35.868,34.911
35.712,34.946
35.559,34.983
35.409,35.019
35.263,35.052
35.123,35.081
34.992,35.105
34.872,35.122
34.765,35.131
34.673,35.132
34.597,35.123
34.537,35.106
34.492,35.081
34.462,35.049
34.444,35.011
34.437,34.968
34.439,34.921
34.449,34.87
34.466,34.818
34.49,34.763
34.518,34.708
34.552,34.653
34.589,34.597
34.63,34.542
34.673,34.488
34.716,34.435
34.757,34.382
34.796,34.329
34.832,34.275
34.864,34.22
34.891,34.164
34.914,34.108
34.932,34.051
34.947,33.994
34.957,33.937
34.963,33.882
34.965,33.827
34.962,33.773
34.954,33.72
34.941,33.668
34.921,33.618
34.896,33.569
34.863,33.52
34.824,33.472
34.779,33.423
34.728,33.374
34.672,33.325
34.611,33.276
34.546,33.226
34.476,33.176
34.404,33.127
34.328,33.078
34.249,33.03
34.169,32.982
34.087,32.934
34.005,32.887
33.921,32.841
33.837,32.798
33.754,32.757
33.67,32.721
33.588,32.689
33.507,32.663
33.429,32.642
33.353,32.627
33.279,32.62
33.208,32.622
33.139,32.636
33.074,32.665
33.011,32.713
32.95,32.783
32.889,32.879
32.827,33.005
32.764,33.164
32.701,33.361
32.637,33.598
32.574,33.88
32.51,34.208
32.447,34.581
32.384,34.998
32.323,35.455
32.263,35.946
32.206,36.462
32.153,36.991
32.102,37.521
32.054,38.039
32.008,38.533
31.963,38.992
31.921,39.407
31.88,39.771
31.841,40.079
31.804,40.328
31.773,40.516
31.75,40.644
31.738,40.715
31.739,40.731
31.759,40.698
31.801,40.622
31.871,40.51
31.975,40.371
32.119,40.209
32.308,40.033
32.547,39.846
32.842,39.653
33.194,39.461
33.601,39.271
34.062,39.086
34.573,38.908
35.128,38.736
35.717,38.572
36.332,38.416
36.961,38.268
37.591,38.128
38.212,37.995
38.81,37.869
39.375,37.75
39.898,37.636
40.37,37.526
40.786,37.419
41.142,37.314
41.434,37.209
41.662,37.103
41.829,36.997
41.935,36.889
41.986,36.781
41.987,36.672
41.943,36.561
41.86,36.448
41.745,36.332
41.603,36.215
41.44,36.099
41.26,35.983
41.069,35.869
40.871,35.76
40.669,35.656
40.467,35.559
40.265,35.468
40.067,35.385
39.872,35.309
39.681,35.243
39.494,35.185
39.31,35.135
39.131,35.092
38.952,35.057
38.772,35.029
38.591,35.009
38.409,34.996
38.227,34.99
38.047,34.988
37.869,34.992
37.694,34.999
37.523,35.008
37.355,35.019
37.19,35.031
37.03,35.044
36.874,35.058
36.721,35.073
36.573,35.087
36.429,35.101
36.289,35.112
36.152,35.121
36.017,35.125
35.884,35.126
35.753,35.124
35.624,35.119
35.497,35.113
35.373,35.103
35.251,35.089
35.134,35.07
35.023,35.046
34.918,35.016
34.822,34.981
34.735,34.942
34.66,34.9
34.597,34.856
34.546,34.811
34.507,34.763
34.479,34.712
34.462,34.657
34.456,34.6
34.459,34.539
34.47,34.477
34.489,34.413
34.514,34.349
34.546,34.285
34.583,34.221
34.624,34.159
34.667,34.098
34.71,34.037
34.752,33.976
34.79,33.916
34.823,33.856
34.852,33.796
34.874,33.736
34.89,33.678
34.899,33.621
34.901,33.564
34.896,33.509
34.885,33.455
34.867,33.401
34.843,33.348
34.814,33.295
34.78,33.245
34.742,33.196
34.699,33.149
34.653,33.104
34.603,33.06
34.55,33.019
34.495,32.978
34.436,32.939
34.375,32.9
34.312,32.863
34.247,32.826
34.18,32.79
34.111,32.756
34.04,32.722
33.966,32.688
33.885,32.656
33.797,32.626
33.703,32.597
33.604,32.571
33.503,32.549
33.402,32.531
33.304,32.519
33.21,32.518
33.122,32.531
33.041,32.561
32.968,32.613
32.902,32.691
32.843,32.799
32.788,32.939
32.737,33.115
32.69,33.332
32.644,33.592
32.6,33.901
32.556,34.258
32.511,34.662
32.465,35.112
32.416,35.6
32.365,36.118
32.309,36.656
32.251,37.202
32.19,37.743
32.127,38.267
32.064,38.761
32.001,39.214
31.94,39.618
31.882,39.966
31.826,40.253
31.774,40.478
31.725,40.641
31.681,40.743
31.643,40.788
31.616,40.781
31.6,40.727
31.6,40.632
31.621,40.504
31.667,40.35
31.744,40.176
31.857,39.987
32.012,39.789
32.213,39.587
32.465,39.385
32.772,39.187
33.134,38.995
33.553,38.813
34.026,38.642
34.549,38.482
35.114,38.332
35.712,38.192
36.332,38.059
36.962,37.935
37.591,37.818
38.206,37.706
38.794,37.598
39.346,37.493
39.852,37.39
40.304,37.289
40.696,37.19
41.025,37.092
41.289,36.996
41.491,36.899
41.631,36.8
41.716,36.699
41.748,36.594
41.733,36.488
41.678,36.38
41.587,36.271
41.466,36.16
41.321,36.05
41.157,35.939
40.977,35.83
40.787,35.723
40.591,35.621
40.392,35.524
40.194,35.435
39.999,35.354
39.81,35.281
39.627,35.218
39.45,35.163
39.278,35.118
39.111,35.082
38.947,35.053
38.785,35.031
38.626,35.015
38.468,35.004
38.311,34.999
38.156,34.999
38.002,35.002
37.847,35.009
37.691,35.017
37.534,35.026
37.375,35.036
37.215,35.044
37.055,35.052
36.893,35.058
36.73,35.064
36.566,35.069
36.402,35.072
36.239,35.073
36.078,35.073
35.92,35.069
35.766,35.061
35.617,35.049
35.474,35.032
35.339,35.012
35.211,34.988
35.091,34.961
34.98,34.931
34.878,34.896
34.784,34.858
34.698,34.817
34.622,34.774
34.556,34.729
34.5,34.682
34.454,34.634
34.418,34.585
34.392,34.532
34.374,34.476
34.364,34.416
34.361,34.354
34.365,34.289
34.376,34.222
34.392,34.153
34.414,34.084
34.442,34.015
34.475,33.948
34.512,33.881
34.552,33.816
34.593,33.753
34.635,33.691
34.675,33.631
34.712,33.574
34.745,33.519
34.773,33.468
34.794,33.418
34.809,33.371
34.816,33.326
34.815,33.281
34.806,33.238
34.789,33.195
34.765,33.152
34.734,33.11
34.697,33.069
34.654,33.027
34.605,32.985
34.55,32.943
34.489,32.901
34.424,32.86
34.353,32.818
34.279,32.776
34.202,32.735
34.124,32.694
34.044,32.655
33.963,32.617
33.882,32.582
33.801,32.549
33.72,32.517
33.64,32.486
33.56,32.458
33.482,32.432
33.404,32.408
33.328,32.389
33.253,32.375
33.179,32.367
33.107,32.369
33.037,32.382
32.968,32.41
32.899,32.456
32.831,32.525
32.762,32.621
32.693,32.748
32.624,32.909
32.554,33.108
32.483,33.349
32.414,33.636
32.345,33.97
32.279,34.354
32.214,34.786
32.15,35.261
32.087,35.773
32.025,36.31
31.965,36.863
31.906,37.417
31.85,37.961
31.797,38.483
31.748,38.971
31.702,39.414
31.66,39.806
31.62,40.139
31.583,40.41
31.548,40.618
31.515,40.764
31.484,40.849
31.457,40.879
31.436,40.857
31.423,40.791
31.423,40.685
31.438,40.547
31.474,40.384
31.534,40.201
31.625,40.005
31.751,39.803
31.919,39.599
32.134,39.399
32.401,39.205
32.723,39.02
33.103,38.846
33.539,38.683
34.029,38.53
34.567,38.386
35.144,38.25
35.752,38.12
36.377,37.996
37.01,37.877
37.639,37.761
38.253,37.649
38.84,37.539
39.388,37.431
39.89,37.324
40.337,37.218
40.723,37.111
41.045,37.004
41.301,36.895
41.491,36.785
41.619,36.673
41.687,36.561
41.703,36.449
41.671,36.338
41.598,36.228
41.49,36.12
41.356,36.014
41.201,35.909
41.029,35.807
40.847,35.708
40.658,35.614
40.464,35.525
40.269,35.442
40.072,35.366
39.875,35.296
39.679,35.234
39.484,35.179
39.29,35.131
39.097,35.091
38.905,35.057
38.714,35.031
38.526,35.01
38.341,34.995
38.161,34.986
37.985,34.981
37.814,34.981
37.649,34.984
37.488,34.991
37.33,35.001
37.173,35.014
37.016,35.028
36.859,35.044
36.701,35.065
36.542,35.092
36.38,35.124
36.217,35.159
36.053,35.192
35.891,35.221
35.731,35.242
35.575,35.253
35.424,35.254
35.278,35.244
35.137,35.223
35.003,35.193
34.875,35.154
34.756,35.108
34.648,35.054
34.552,34.994
34.468,34.929
34.398,34.86
34.343,34.79
34.3,34.718
34.272,34.646
34.256,34.575
34.252,34.506
34.259,34.439
34.275,34.374
34.298,34.309
34.326,34.246
34.359,34.182
34.394,34.12
34.431,34.059
34.469,34.001
34.507,33.944
34.543,33.888
34.578,33.832
34.612,33.777
34.643,33.723
34.671,33.67
34.695,33.618
34.714,33.568
34.73,33.52
34.741,33.473
34.749,33.426
34.752,33.379
34.752,33.332
34.747,33.286
34.737,33.24
34.722,33.195
34.701,33.151
34.675,33.106
34.644,33.062
34.608,33.018
34.567,32.973
34.522,32.928
34.472,32.883
34.419,32.837
34.362,32.793
34.3,32.751
34.234,32.712
34.163,32.674
34.087,32.638
34.006,32.603
33.922,32.569
33.835,32.536
33.749,32.506
33.664,32.478
33.581,32.452
33.499,32.428
33.421,32.407
33.344,32.391
33.271,32.383
33.201,32.385
33.133,32.401
33.066,32.433
33.002,32.486
32.94,32.561
32.879,32.662
32.82,32.793
32.762,32.954
32.704,33.149
32.647,33.38
32.591,33.647
32.534,33.952
32.477,34.296
32.422,34.679
32.367,35.098
32.313,35.547
32.26,36.021
32.206,36.512
32.152,37.012
32.098,37.51
32.045,37.994
31.993,38.455
31.943,38.883
31.894,39.269
31.847,39.608
31.802,39.894
31.758,40.123
31.717,40.295
31.679,40.409
31.643,40.467
31.611,40.472
31.584,40.428
31.563,40.343
31.552,40.222
31.552,40.074
31.566,39.905
31.597,39.723
31.65,39.531
31.728,39.336
31.838,39.141
31.982,38.949
32.169,38.763
32.401,38.584
32.682,38.414
33.016,38.252
33.402,38.098
33.839,37.951
34.325,37.811
34.854,37.677
35.418,37.549
36.007,37.425
36.611,37.303
37.219,37.181
37.82,37.059
38.402,36.935
38.955,36.809
39.468,36.681
39.934,36.552
40.349,36.423
40.708,36.296
41.006,36.17
41.245,36.048
41.423,35.928
41.543,35.812
41.608,35.699
41.623,35.59
41.592,35.486
41.521,35.387
41.415,35.293
41.28,35.206
41.12,35.127
40.942,35.056
40.749,34.996
40.547,34.943
40.338,34.897
40.126,34.857
39.912,34.825
39.698,34.799
39.486,34.782
39.276,34.772
39.068,34.769
38.864,34.772
38.664,34.781
38.467,34.794
38.274,34.81
38.085,34.827
37.9,34.847
37.719,34.869
37.541,34.892
37.366,34.915
37.192,34.936
37.019,34.954
36.846,34.97
36.673,34.982
36.499,34.991
36.325,34.997
36.151,35
35.979,35.002
35.809,35
35.644,34.993
35.484,34.982
35.33,34.967
35.183,34.949
35.042,34.926
34.908,34.9
34.782,34.87
34.663,34.837
34.554,34.802
34.454,34.766
34.364,34.726
34.286,34.684
34.221,34.637
34.17,34.587
34.134,34.532
34.111,34.473
34.101,34.412
34.103,34.349
34.116,34.287
34.138,34.225
34.169,34.163
34.207,34.101
34.251,34.039
34.3,33.978
34.353,33.917
34.408,33.856
34.465,33.796
34.522,33.738
34.577,33.682
34.628,33.626
34.676,33.572
34.718,33.519
34.754,33.469
34.783,33.42
34.805,33.374
34.819,33.33
34.826,33.289
34.827,33.25
34.822,33.211
34.813,33.173
34.799,33.136
34.78,33.101
34.757,33.069
34.731,33.038
34.699,33.009
34.662,32.982
34.619,32.956
34.57,32.93
34.514,32.904
34.453,32.878
34.386,32.85
34.313,32.822
34.237,32.794
34.158,32.764
34.077,32.734
33.995,32.703
33.912,32.673
33.829,32.645
33.746,32.62
33.665,32.598
33.586,32.581
33.508,32.571
33.432,32.571
33.358,32.583
33.287,32.609
33.218,32.652
33.152,32.716
33.089,32.804
33.028,32.92
32.968,33.066
32.91,33.245
32.853,33.462
32.798,33.718
32.743,34.017
32.69,34.36
32.638,34.747
32.586,35.175
32.535,35.637
32.483,36.126
32.43,36.632
32.376,37.144
32.32,37.653
32.265,38.147
32.209,38.617
32.155,39.052
32.104,39.444
32.054,39.785
32.007,40.071
31.962,40.297
31.918,40.463
31.875,40.57
31.833,40.621
31.793,40.62
31.755,40.572
31.72,40.483
31.687,40.358
31.658,40.206
31.634,40.034
31.615,39.848
31.604,39.655
31.602,39.46
31.612,39.267
31.64,39.08
31.688,38.898
31.761,38.723
31.866,38.555
32.007,38.394
32.191,38.239
32.421,38.091
32.701,37.948
33.032,37.811
33.415,37.679
33.849,37.551
34.331,37.427
34.854,37.305
35.411,37.186
35.994,37.067
36.592,36.95
37.195,36.833
37.791,36.718
38.371,36.605
38.924,36.494
39.442,36.386
39.916,36.279
40.339,36.174
40.707,36.07
41.016,35.966
41.264,35.864
41.452,35.763
41.582,35.665
41.658,35.57
41.683,35.48
41.662,35.397
41.601,35.32
41.506,35.249
41.382,35.184
41.235,35.126
41.07,35.075
40.893,35.031
40.708,34.994
40.516,34.965
40.32,34.943
40.121,34.928
39.922,34.92
39.722,34.917
39.523,34.92
39.325,34.927
39.128,34.939
38.932,34.955
38.738,34.974
38.541,34.995
38.342,35.018
38.142,35.041
37.942,35.064
37.744,35.088
37.55,35.11
37.361,35.131
37.178,35.15
37.001,35.165
36.829,35.175
36.663,35.181
36.502,35.181
36.346,35.175
36.195,35.163
36.049,35.143
35.907,35.117
35.768,35.084
35.632,35.047
35.499,35.005
35.37,34.961
35.245,34.915
35.125,34.867
35.012,34.817
34.908,34.764
34.813,34.708
34.729,34.65
34.657,34.59
34.597,34.527
34.55,34.464
34.516,34.401
34.492,34.339
34.479,34.278
34.476,34.216
34.483,34.155
34.497,34.093
34.519,34.033
34.548,33.972
34.582,33.913
34.621,33.855
34.665,33.799
34.711,33.745
34.758,33.693
34.805,33.642
34.851,33.59
34.893,33.538
34.931,33.487
34.964,33.437
34.994,33.388
35.019,33.341
35.039,33.297
35.056,33.255
35.067,33.215
35.075,33.176
35.077,33.137
35.075,33.099
35.066,33.061
35.052,33.021
35.031,32.981
35.003,32.939
34.968,32.897
34.927,32.855
34.88,32.813
34.827,32.773
34.77,32.734
34.708,32.697
34.642,32.662
34.573,32.631
34.501,32.604
34.427,32.583
34.35,32.569
34.27,32.564
34.189,32.569
34.106,32.586
34.022,32.618
33.938,32.667
33.854,32.737
33.77,32.83
33.687,32.95
33.605,33.102
33.526,33.29
33.449,33.517
33.374,33.787
33.303,34.102
33.234,34.46
33.167,34.862
33.102,35.302
33.038,35.774
32.978,36.27
32.92,36.782
32.865,37.297
32.811,37.804
32.759,38.29
32.708,38.745
32.657,39.16
32.606,39.526
32.554,39.838
32.502,40.094
32.45,40.293
32.398,40.433
32.347,40.517
32.297,40.546
32.25,40.525
32.204,40.46
32.16,40.358
32.117,40.226
32.075,40.07
32.034,39.896
31.995,39.711
31.959,39.521
31.926,39.33
31.896,39.142
31.873,38.959
31.857,38.785
31.851,38.62
31.858,38.463
31.881,38.314
31.923,38.173
31.99,38.038
32.086,37.909
32.216,37.786
32.387,37.666
32.603,37.551
32.868,37.439
33.186,37.33
33.555,37.224
33.976,37.119
34.443,37.015
34.953,36.911
35.497,36.808
36.066,36.704
36.65,36.6
37.239,36.496
37.823,36.392
38.391,36.289
38.933,36.187
39.44,36.085
39.906,35.983
40.323,35.882
40.689,35.782
40.998,35.685
41.249,35.591
41.443,35.501
41.58,35.418
41.663,35.341
41.696,35.273
41.685,35.213
41.634,35.162
41.549,35.117
41.437,35.079
41.302,35.046
41.149,35.018
40.983,34.996
40.809,34.979
40.628,34.969
40.443,34.964
40.256,34.963
40.067,34.965
39.878,34.97
39.69,34.976
39.503,34.983
39.319,34.991
39.14,35.001
38.965,35.012
38.795,35.023
38.629,35.034
38.468,35.044
38.31,35.054
38.156,35.064
38.004,35.072
37.854,35.077
37.703,35.078
37.552,35.075
37.4,35.067
37.247,35.055
37.093,35.038
36.937,35.017
36.782,34.993
36.629,34.965
36.476,34.935
36.325,34.901
36.175,34.863
36.026,34.822
35.88,34.777
35.737,34.727
35.599,34.672
35.466,34.612
35.339,34.549
35.22,34.483
35.11,34.416
35.009,34.348
34.92,34.282
34.842,34.217
34.776,34.155
34.722,34.094
34.679,34.034
34.648,33.974
34.629,33.914
34.621,33.855
34.623,33.795
34.634,33.736
34.652,33.677
34.677,33.619
34.706,33.563
34.738,33.508
34.772,33.455
34.807,33.402
34.841,33.349
34.874,33.297
34.905,33.245
34.932,33.194
34.957,33.146
34.979,33.099
34.997,33.053
35.011,33.009
35.021,32.966
35.025,32.925
35.025,32.884
35.019,32.844
35.008,32.804
34.992,32.765
34.975,32.727
34.956,32.691
34.935,32.656
34.91,32.622
34.88,32.588
34.845,32.555
34.802,32.523
34.753,32.492
34.696,32.464
34.632,32.438
34.56,32.419
34.483,32.408
34.401,32.407
34.315,32.42
34.226,32.451
34.134,32.502
34.04,32.579
33.946,32.684
33.851,32.821
33.758,32.994
33.666,33.205
33.579,33.458
33.495,33.756
33.415,34.101
33.34,34.493
33.268,34.928
33.201,35.401
33.137,35.903
33.076,36.424
33.017,36.953
32.96,37.478
32.905,37.987
32.852,38.467
32.801,38.907
32.751,39.298
32.702,39.635
32.655,39.914
32.608,40.132
32.561,40.29
32.514,40.39
32.464,40.437
32.414,40.432
32.362,40.382
32.31,40.292
32.256,40.168
32.203,40.02
32.15,39.852
32.097,39.669
32.046,39.478
31.994,39.284
31.944,39.091
31.896,38.903
31.85,38.723
31.807,38.552
31.768,38.391
31.735,38.239
31.71,38.096
31.693,37.96
31.689,37.83
31.699,37.705
31.728,37.586
31.78,37.473
31.859,37.364
31.972,37.259
32.123,37.158
32.318,37.061
32.563,36.967
32.859,36.875
33.21,36.784
33.614,36.696
34.069,36.609
34.57,36.521
35.11,36.432
35.679,36.342
36.268,36.25
36.866,36.157
37.463,36.063
38.047,35.967
38.607,35.871
39.134,35.777
39.62,35.685
40.059,35.596
40.446,35.51
40.778,35.428
41.052,35.349
41.269,35.273
41.431,35.201
41.539,35.132
41.598,35.068
41.611,35.01
41.584,34.959
41.523,34.915
41.431,34.88
41.314,34.855
41.176,34.84
41.023,34.835
40.858,34.838
40.685,34.847
40.506,34.862
40.325,34.882
40.141,34.907
39.957,34.935
39.772,34.962
39.589,34.988
39.407,35.011
39.227,35.031
39.051,35.046
38.878,35.057
38.709,35.062
38.545,35.063
38.385,35.058
38.23,35.048
38.078,35.033
37.93,35.012
37.784,34.987
37.638,34.957
37.492,34.923
37.346,34.884
37.198,34.841
37.049,34.793
36.901,34.743
36.754,34.691
36.608,34.638
36.463,34.584
36.32,34.53
36.178,34.474
36.039,34.418
35.903,34.361
35.768,34.303
35.636,34.245
35.506,34.185
35.381,34.123
35.262,34.06
35.15,33.997
35.047,33.934
34.955,33.873
34.875,33.812
34.806,33.753
34.748,33.695
34.701,33.639
34.665,33.584
34.639,33.53
34.623,33.478
34.617,33.426
34.62,33.374
34.63,33.323
34.648,33.272
34.672,33.221
34.701,33.173
34.733,33.126
34.767,33.081
34.802,33.036
34.835,32.993
34.866,32.952
34.894,32.911
34.918,32.873
34.937,32.836
34.953,32.8
34.962,32.765
34.967,32.731
34.966,32.698
34.959,32.666
34.947,32.637
34.929,32.608
34.906,32.582
34.878,32.557
34.846,32.533
34.81,32.51
34.769,32.487
34.724,32.463
34.674,32.438
34.62,32.414
34.561,32.391
34.498,32.373
34.43,32.362
34.359,32.361
34.284,32.373
34.207,32.402
34.127,32.449
34.046,32.519
33.964,32.614
33.881,32.74
33.799,32.902
33.717,33.102
33.636,33.344
33.557,33.631
33.478,33.964
33.402,34.343
33.326,34.766
33.253,35.228
33.181,35.721
33.112,36.234
33.045,36.757
32.979,37.277
32.914,37.782
32.849,38.261
32.785,38.706
32.722,39.106
32.659,39.455
32.597,39.748
32.535,39.981
32.473,40.154
32.412,40.268
32.351,40.326
32.291,40.33
32.232,40.285
32.175,40.198
32.12,40.075
32.067,39.925
32.016,39.754
31.969,39.571
31.924,39.381
31.881,39.191
31.841,39.004
31.802,38.824
31.765,38.654
31.729,38.494
31.694,38.344
31.66,38.203
31.63,38.069
31.602,37.942
31.579,37.819
31.561,37.703
31.55,37.591
31.55,37.485
31.565,37.382
31.598,37.28
31.654,37.178
31.736,37.076
31.852,36.974
32.007,36.872
32.206,36.77
32.452,36.668
32.749,36.567
33.098,36.465
33.501,36.366
33.954,36.269
34.452,36.175
34.99,36.083
35.56,35.994
36.15,35.908
36.752,35.824
37.352,35.742
37.94,35.661
38.504,35.581
39.036,35.505
39.526,35.431
39.969,35.362
40.357,35.298
40.689,35.237
40.963,35.18
41.178,35.126
41.337,35.076
41.442,35.029
41.498,34.986
41.51,34.948
41.481,34.916
41.418,34.891
41.324,34.873
41.205,34.86
41.065,34.854
40.909,34.854
40.74,34.859
40.562,34.87
40.377,34.885
40.189,34.902
39.999,34.921
39.811,34.939
39.625,34.955
39.442,34.968
39.265,34.979
39.093,34.987
38.926,34.992
38.764,34.993
38.606,34.99
38.452,34.982
38.299,34.969
38.147,34.949
37.994,34.924
37.841,34.893
37.687,34.857
37.532,34.817
37.377,34.773
37.221,34.728
37.066,34.681
36.911,34.633
36.758,34.583
36.606,34.53
36.456,34.474
36.309,34.415
36.162,34.354
36.017,34.291
35.873,34.227
35.73,34.161
35.59,34.094
35.454,34.025
35.323,33.955
35.199,33.885
35.082,33.816
34.975,33.749
34.879,33.685
34.793,33.624
34.718,33.567
34.654,33.514
34.6,33.463
34.557,33.415
34.523,33.368
34.498,33.322
34.482,33.278
34.474,33.236
34.473,33.195
34.48,33.155
34.492,33.114
34.509,33.072
34.531,33.029
34.557,32.986
34.585,32.943
34.615,32.901
34.646,32.86
34.676,32.82
34.706,32.782
34.734,32.746
34.758,32.71
34.779,32.675
34.796,32.64
34.809,32.606
34.816,32.573
34.818,32.541
34.814,32.512
34.805,32.486
34.791,32.462
34.771,32.44
34.745,32.42
34.714,32.4
34.677,32.384
34.634,32.369
34.587,32.358
34.535,32.352
34.479,32.353
34.419,32.364
34.358,32.386
34.294,32.423
34.228,32.48
34.16,32.56
34.088,32.669
34.014,32.809
33.937,32.985
33.857,33.199
33.777,33.456
33.695,33.757
33.614,34.103
33.533,34.493
33.452,34.921
33.372,35.383
33.292,35.869
33.213,36.372
33.135,36.88
33.057,37.382
32.98,37.868
32.903,38.327
32.827,38.748
32.754,39.124
32.684,39.448
32.616,39.716
32.552,39.925
32.491,40.075
32.431,40.168
32.373,40.207
32.316,40.196
32.261,40.143
32.208,40.052
32.155,39.932
32.104,39.789
32.053,39.629
32.005,39.459
31.959,39.283
31.915,39.104
31.873,38.926
31.832,38.751
31.792,38.582
31.751,38.42
31.711,38.265
31.672,38.119
31.634,37.981
31.598,37.852
31.563,37.731
31.53,37.617
31.499,37.51
31.474,37.409
31.456,37.311
31.449,37.215
31.455,37.121
31.48,37.027
31.526,36.934
31.6,36.84
31.706,36.746
31.85,36.65
32.036,36.551
32.271,36.45
32.555,36.347
32.891,36.242
33.278,36.136
33.715,36.031
34.199,35.928
34.726,35.828
35.286,35.73
35.872,35.636
36.473,35.544
37.077,35.457
37.674,35.374
38.252,35.297
38.802,35.227
39.312,35.164
39.777,35.107
40.189,35.057
40.543,35.014
40.839,34.977
41.074,34.945
41.249,34.919
41.368,34.899
41.434,34.885
41.453,34.877
41.429,34.875
41.368,34.878
41.276,34.884
41.157,34.894
41.016,34.906
40.859,34.919
40.69,34.93
40.513,34.94
40.329,34.948
40.141,34.953
39.951,34.956
39.76,34.958
39.57,34.959
39.382,34.959
39.198,34.959
39.017,34.957
38.839,34.952
38.665,34.943
38.493,34.93
38.323,34.913
38.153,34.894
37.984,34.872
37.817,34.848
37.65,34.821
37.483,34.791
37.316,34.757
37.149,34.72
36.981,34.679
36.812,34.635
36.643,34.588
36.476,34.539
36.309,34.489
36.146,34.436
35.986,34.381
35.83,34.325
35.678,34.267
35.532,34.21
35.393,34.152
35.26,34.094
35.136,34.036
35.019,33.977
34.912,33.917
34.814,33.858
34.724,33.799
34.644,33.741
34.571,33.685
34.507,33.631
34.451,33.578
34.403,33.527
34.364,33.477
34.334,33.428
34.313,33.379
34.302,33.331
34.3,33.283
34.305,33.237
34.317,33.194
34.336,33.154
34.36,33.116
34.389,33.082
34.421,33.051
34.457,33.021
34.495,32.991
34.536,32.961
34.578,32.931
34.621,32.901
34.663,32.869
34.703,32.836
34.741,32.801
34.775,32.764
34.803,32.727
34.824,32.689
34.839,32.653
34.846,32.618
34.844,32.586
34.835,32.558
34.816,32.536
34.79,32.52
34.756,32.511
34.716,32.508
34.67,32.513
34.618,32.525
34.561,32.546
34.501,32.578
34.437,32.625
34.372,32.689
34.304,32.774
34.236,32.882
34.167,33.018
34.098,33.184
34.028,33.385
33.957,33.624
33.886,33.902
33.814,34.223
33.742,34.586
33.669,34.988
33.596,35.425
33.523,35.891
33.451,36.375
33.378,36.867
33.305,37.355
33.233,37.83
33.16,38.279
33.089,38.693
33.019,39.063
32.95,39.384
32.882,39.651
32.815,39.861
32.748,40.013
32.682,40.108
32.616,40.149
32.551,40.14
32.489,40.086
32.43,39.993
32.375,39.866
32.324,39.713
32.277,39.539
32.233,39.35
32.193,39.152
32.153,38.951
32.114,38.753
32.076,38.561
32.037,38.377
31.999,38.201
31.962,38.035
31.926,37.879
31.892,37.732
31.861,37.595
31.833,37.464
31.808,37.341
31.786,37.223
31.769,37.109
31.759,36.999
31.756,36.894
31.764,36.791
31.786,36.691
31.826,36.591
31.889,36.489
31.981,36.385
32.107,36.279
32.271,36.173
32.479,36.066
32.734,35.96
33.037,35.854
33.389,35.749
33.788,35.646
34.233,35.545
34.717,35.447
35.234,35.353
35.776,35.265
36.335,35.183
36.901,35.107
37.464,35.037
38.016,34.975
38.547,34.922
39.047,34.877
39.509,34.842
39.926,34.816
40.292,34.799
40.601,34.791
40.853,34.792
41.047,34.8
41.184,34.814
41.268,34.833
41.301,34.856
41.288,34.881
41.234,34.907
41.145,34.933
41.026,34.959
40.882,34.984
40.719,35.007
40.541,35.028
40.353,35.046
40.158,35.06
39.959,35.072
39.757,35.078
39.556,35.082
39.357,35.081
39.162,35.076
38.971,35.067
38.785,35.054
38.604,35.036
38.426,35.014
38.25,34.991
38.076,34.966
37.903,34.939
37.731,34.91
37.559,34.88
37.387,34.848
37.215,34.813
37.042,34.775
36.87,34.734
36.697,34.688
36.525,34.639
36.354,34.587
36.184,34.533
36.014,34.478
35.847,34.423
35.681,34.369
35.517,34.315
35.358,34.261
35.202,34.207
35.053,34.151
34.912,34.095
34.779,34.039
34.656,33.985
34.544,33.932
34.446,33.881
34.361,33.832
34.289,33.785
34.232,33.739
34.188,33.695
34.157,33.653
34.14,33.612
34.135,33.572
34.142,33.534
34.16,33.498
34.188,33.464
34.225,33.431
34.268,33.397
34.316,33.361
34.369,33.322
34.424,33.281
34.48,33.238
34.536,33.195
34.591,33.152
34.643,33.11
34.692,33.07
34.737,33.031
34.777,32.991
34.811,32.952
34.839,32.912
34.86,32.872
34.874,32.834
34.88,32.798
34.879,32.765
34.872,32.738
34.862,32.717
34.847,32.705
34.829,32.702
34.806,32.713
34.779,32.738
34.748,32.783
34.712,32.849
34.672,32.94
34.627,33.06
34.578,33.21
34.525,33.393
34.467,33.611
34.404,33.867
34.338,34.162
34.269,34.496
34.197,34.869
34.123,35.276
34.047,35.711
33.97,36.168
33.892,36.637
33.815,37.108
33.739,37.57
33.664,38.012
33.59,38.426
33.518,38.801
33.446,39.132
33.375,39.413
33.305,39.64
33.235,39.812
33.167,39.928
33.1,39.992
33.033,40.007
32.967,39.976
32.903,39.906
32.841,39.803
32.78,39.673
32.721,39.521
32.664,39.352
32.609,39.174
32.554,38.99
32.501,38.805
32.45,38.622
32.399,38.444
32.349,38.274
32.3,38.114
32.251,37.963
32.203,37.823
32.155,37.692
32.107,37.569
32.06,37.453
32.014,37.344
31.97,37.239
31.93,37.138
31.896,37.041
31.869,36.947
31.852,36.854
31.848,36.763
31.86,36.671
31.893,36.578
31.95,36.486
32.037,36.391
32.16,36.294
32.324,36.194
32.535,36.092
32.796,35.989
33.11,35.887
33.478,35.786
33.897,35.688
34.364,35.593
34.874,35.501
35.418,35.414
35.988,35.332
36.572,35.256
37.159,35.186
37.738,35.123
38.298,35.069
38.828,35.021
39.321,34.979
39.768,34.943
40.165,34.913
40.508,34.89
40.796,34.872
41.027,34.86
41.204,34.853
41.329,34.852
41.406,34.855
41.438,34.863
41.429,34.875
41.383,34.889
41.305,34.904
41.199,34.919
41.069,34.934
40.919,34.948
40.753,34.962
40.576,34.975
40.389,34.986
40.196,34.996
39.998,35.005
39.798,35.01
39.597,35.013
39.398,35.014
39.199,35.012
39.004,35.008
38.812,35.002
38.625,34.992
38.443,34.979
38.267,34.962
38.097,34.942
37.931,34.918
37.769,34.89
37.609,34.858
37.449,34.822
37.289,34.783
37.127,34.74
36.964,34.694
36.799,34.644
36.634,34.591
36.468,34.535
36.303,34.477
36.139,34.418
35.978,34.359
35.822,34.302
35.67,34.245
35.526,34.189
35.389,34.133
35.259,34.076
35.136,34.018
35.021,33.96
34.913,33.903
34.814,33.847
34.723,33.792
34.64,33.74
34.566,33.69
34.503,33.642
34.45,33.597
34.409,33.554
34.378,33.512
34.357,33.472
34.344,33.431
34.34,33.391
34.343,33.351
34.353,33.312
34.37,33.273
34.394,33.235
34.424,33.197
34.46,33.159
34.499,33.121
34.541,33.083
34.584,33.045
34.628,33.006
34.67,32.969
34.71,32.931
34.747,32.895
34.78,32.86
34.809,32.826
34.833,32.792
34.852,32.761
34.864,32.735
34.869,32.715
34.867,32.704
34.857,32.705
34.84,32.723
34.815,32.759
34.784,32.818
34.747,32.902
34.706,33.013
34.661,33.155
34.611,33.332
34.557,33.546
34.5,33.802
34.44,34.102
34.377,34.445
34.311,34.831
34.244,35.255
34.176,35.711
34.107,36.191
34.037,36.683
33.966,37.177
33.895,37.661
33.823,38.124
33.752,38.555
33.679,38.946
33.607,39.288
33.535,39.573
33.463,39.799
33.393,39.964
33.323,40.069
33.254,40.119
33.185,40.117
33.116,40.07
33.046,39.984
32.976,39.866
32.906,39.722
32.837,39.559
32.769,39.382
32.703,39.199
32.637,39.012
32.572,38.826
32.509,38.644
32.446,38.468
32.385,38.301
32.324,38.143
32.264,37.996
32.205,37.86
32.148,37.734
32.093,37.618
32.04,37.51
31.988,37.409
31.938,37.312
31.891,37.219
31.848,37.127
31.811,37.035
31.784,36.944
31.769,36.852
31.771,36.76
31.792,36.668
31.839,36.577
31.916,36.487
32.031,36.399
32.189,36.311
32.393,36.224
32.648,36.137
32.955,36.049
33.316,35.96
33.728,35.868
34.188,35.776
34.69,35.685
35.228,35.597
35.793,35.512
36.375,35.431
36.962,35.356
37.544,35.285
38.111,35.219
38.653,35.159
39.162,35.105
39.629,35.059
40.049,35.021
40.417,34.991
40.729,34.968
40.984,34.951
41.182,34.942
41.324,34.939
41.416,34.943
41.462,34.952
41.467,34.965
41.435,34.98
41.37,34.998
41.278,35.017
41.16,35.036
41.022,35.054
40.867,35.07
40.699,35.083
40.52,35.092
40.334,35.098
40.144,35.1
39.95,35.099
39.755,35.097
39.561,35.092
39.368,35.085
39.178,35.076
38.992,35.064
38.808,35.049
38.629,35.031
38.455,35.009
38.285,34.985
38.12,34.956
37.958,34.925
37.801,34.889
37.646,34.851
37.494,34.809
37.343,34.764
37.193,34.717
37.044,34.667
36.895,34.614
36.746,34.559
36.597,34.503
36.446,34.447
36.293,34.391
36.139,34.336
35.984,34.281
35.828,34.226
35.673,34.172
35.522,34.118
35.377,34.065
35.239,34.013
35.11,33.963
34.992,33.912
34.885,33.862
34.789,33.81
34.705,33.759
34.631,33.709
34.568,33.659
34.514,33.611
34.471,33.562
34.44,33.515
34.418,33.469
34.407,33.425
34.405,33.381
34.413,33.339
34.427,33.298
34.448,33.257
34.472,33.216
34.499,33.176
34.528,33.136
34.557,33.098
34.584,33.06
34.61,33.022
34.634,32.984
34.657,32.947
34.677,32.912
34.696,32.88
34.714,32.852
34.73,32.826
34.745,32.803
34.757,32.784
34.766,32.771
34.77,32.767
34.77,32.774
34.765,32.796
34.753,32.836
34.736,32.897
34.712,32.982
34.684,33.095
34.65,33.24
34.612,33.42
34.569,33.638
34.522,33.897
34.471,34.199
34.415,34.544
34.355,34.931
34.289,35.355
34.218,35.807
34.142,36.281
34.062,36.764
33.98,37.245
33.897,37.712
33.814,38.154
33.733,38.562
33.653,38.928
33.575,39.246
33.499,39.511
33.425,39.722
33.352,39.879
33.28,39.981
33.21,40.032
33.139,40.035
33.07,39.995
33.003,39.915
32.937,39.803
32.873,39.665
32.811,39.506
32.751,39.333
32.691,39.151
32.632,38.966
32.573,38.782
32.514,38.604
32.455,38.433
32.397,38.273
32.338,38.124
32.281,37.985
32.223,37.857
32.165,37.738
32.107,37.628
32.05,37.525
31.993,37.427
31.936,37.334
31.881,37.244
31.829,37.156
31.781,37.071
31.738,36.988
31.703,36.906
31.677,36.823
31.665,36.739
31.668,36.654
31.692,36.566
31.739,36.476
31.817,36.384
31.932,36.291
32.088,36.198
32.291,36.108
32.545,36.019
32.853,35.932
33.215,35.846
33.631,35.763
34.097,35.682
34.607,35.604
35.153,35.529
35.726,35.456
36.316,35.385
36.911,35.318
37.501,35.254
38.074,35.194
38.622,35.141
39.136,35.096
39.608,35.059
40.03,35.03
40.4,35.007
40.713,34.99
40.969,34.978
41.167,34.97
41.31,34.966
41.401,34.965
41.443,34.967
41.439,34.971
41.395,34.978
41.316,34.987
41.206,34.998
41.072,35.01
40.918,35.023
40.75,35.036
40.572,35.047
40.386,35.058
40.196,35.068
40.004,35.077
39.813,35.083
39.623,35.087
39.437,35.087
39.254,35.083
39.077,35.075
38.904,35.062
38.736,35.043
38.571,35.018
38.41,34.987
38.251,34.951
38.094,34.909
37.937,34.863
37.779,34.814
37.621,34.762
37.462,34.707
37.301,34.651
37.138,34.594
36.974,34.535
36.81,34.477
36.647,34.419
36.485,34.359
36.323,34.298
36.163,34.235
36.006,34.172
35.85,34.108
35.698,34.046
35.548,33.987
35.402,33.935
35.261,33.894
35.125,33.863
34.996,33.841
34.875,33.824
34.762,33.809
34.66,33.794
34.569,33.777
34.489,33.754
34.418,33.723
34.357,33.686
34.306,33.64
34.265,33.589
34.234,33.531
34.212,33.469
34.201,33.403
34.199,33.334
34.206,33.263
34.221,33.192
34.243,33.123
34.272,33.055
34.308,32.99
34.348,32.928
34.391,32.867
34.436,32.811
34.482,32.759
34.528,32.713
34.572,32.671
34.612,32.633
34.648,32.6
34.679,32.572
34.705,32.551
34.729,32.537
34.752,32.53
34.772,32.534
34.789,32.55
34.8,32.58
34.804,32.629
34.8,32.701
34.786,32.799
34.762,32.926
34.728,33.085
34.684,33.281
34.63,33.516
34.566,33.795
34.496,34.119
34.42,34.487
34.34,34.896
34.257,35.34
34.174,35.811
34.09,36.3
34.006,36.797
33.924,37.289
33.843,37.767
33.763,38.219
33.685,38.635
33.607,39.007
33.53,39.327
33.453,39.592
33.378,39.798
33.304,39.945
33.232,40.036
33.161,40.072
33.091,40.058
33.022,40.002
32.953,39.909
32.885,39.787
32.817,39.644
32.749,39.487
32.681,39.322
32.614,39.154
32.549,38.986
32.485,38.821
32.424,38.66
32.364,38.506
32.305,38.359
32.247,38.219
32.19,38.086
32.133,37.958
32.075,37.837
32.019,37.721
31.964,37.611
31.91,37.505
31.859,37.402
31.811,37.302
31.766,37.204
31.724,37.107
31.686,37.01
31.653,36.914
31.625,36.82
31.604,36.728
31.593,36.639
31.593,36.552
31.61,36.468
31.645,36.386
31.705,36.307
31.793,36.229
31.914,36.15
32.072,36.071
32.273,35.991
32.52,35.91
32.815,35.83
33.161,35.751
33.557,35.674
33.999,35.599
34.484,35.526
35.005,35.457
35.554,35.392
36.123,35.329
36.7,35.27
37.277,35.214
37.842,35.163
38.386,35.118
38.901,35.08
39.379,35.049
39.811,35.027
40.193,35.012
40.519,35.005
40.787,35.004
40.994,35.007
41.143,35.014
41.235,35.022
41.274,35.031
41.263,35.042
41.21,35.053
41.12,35.064
41,35.075
40.855,35.085
40.69,35.093
40.511,35.101
40.323,35.106
40.13,35.109
39.936,35.109
39.741,35.106
39.549,35.1
39.358,35.092
39.17,35.08
38.985,35.065
38.801,35.047
38.618,35.026
38.437,35.002
38.256,34.975
38.075,34.944
37.895,34.909
37.713,34.87
37.533,34.828
37.353,34.781
37.175,34.731
37,34.678
36.826,34.623
36.655,34.566
36.487,34.509
36.321,34.451
36.156,34.393
35.994,34.335
35.834,34.274
35.675,34.212
35.519,34.149
35.366,34.086
35.218,34.023
35.075,33.961
34.939,33.901
34.811,33.843
34.693,33.787
34.585,33.733
34.49,33.68
34.406,33.627
34.335,33.576
34.276,33.525
34.228,33.476
34.193,33.43
34.17,33.386
34.157,33.345
34.153,33.307
34.158,33.271
34.17,33.235
34.189,33.2
34.214,33.164
34.245,33.129
34.28,33.094
34.318,33.059
34.36,33.026
34.403,32.994
34.447,32.962
34.491,32.931
34.535,32.899
34.577,32.867
34.618,32.835
34.656,32.804
34.689,32.774
34.717,32.745
34.741,32.72
34.759,32.697
34.773,32.677
34.783,32.659
34.788,32.644
34.789,32.631
34.784,32.622
34.774,32.62
34.758,32.626
34.737,32.642
34.71,32.671
34.676,32.715
34.637,32.777
34.593,32.861
34.544,32.969
34.491,33.107
34.434,33.278
34.373,33.488
34.308,33.74
34.239,34.035
34.168,34.374
34.094,34.756
34.019,35.176
33.944,35.628
33.87,36.102
33.797,36.589
33.726,37.078
33.657,37.558
33.589,38.017
33.523,38.446
33.46,38.835
33.397,39.179
33.336,39.47
33.275,39.705
33.214,39.881
33.153,39.997
33.091,40.058
33.028,40.066
32.964,40.027
32.9,39.947
32.834,39.834
32.768,39.694
32.702,39.534
32.636,39.36
32.57,39.179
32.505,38.997
32.44,38.818
32.376,38.644
32.312,38.477
32.251,38.319
32.191,38.168
32.134,38.027
32.08,37.893
32.031,37.766
31.987,37.644
31.951,37.527
31.924,37.414
31.908,37.305
31.905,37.197
31.918,37.09
31.953,36.984
32.012,36.878
32.102,36.772
32.229,36.665
32.397,36.559
32.61,36.453
32.872,36.35
33.182,36.25
33.541,36.152
33.947,36.057
34.396,35.964
34.881,35.874
35.397,35.788
35.937,35.705
36.493,35.627
37.053,35.554
37.608,35.487
38.146,35.424
38.658,35.367
39.135,35.316
39.57,35.272
39.958,35.233
40.293,35.2
40.573,35.172
40.796,35.15
40.964,35.133
41.076,35.123
41.138,35.118
41.152,35.118
41.124,35.122
41.06,35.13
40.965,35.141
40.845,35.152
40.706,35.164
40.552,35.177
40.388,35.19
40.217,35.205
40.043,35.221
39.867,35.237
39.689,35.253
39.511,35.268
39.332,35.281
39.152,35.291
38.972,35.297
38.79,35.297
38.608,35.293
38.426,35.283
38.243,35.267
38.062,35.246
37.883,35.221
37.708,35.193
37.536,35.161
37.368,35.124
37.204,35.085
37.043,35.044
36.884,35
36.726,34.955
36.569,34.907
36.413,34.856
36.258,34.803
36.103,34.746
35.949,34.686
35.796,34.625
35.645,34.563
35.497,34.5
35.353,34.439
35.215,34.377
35.085,34.314
34.962,34.252
34.848,34.19
34.744,34.13
34.65,34.071
34.566,34.015
34.493,33.96
34.432,33.908
34.383,33.857
34.346,33.806
34.321,33.756
34.309,33.704
34.31,33.651
34.322,33.599
34.346,33.547
34.379,33.497
34.419,33.45
34.466,33.405
34.517,33.36
34.571,33.315
34.624,33.268
34.678,33.221
34.73,33.175
34.78,33.13
34.827,33.087
34.871,33.049
34.913,33.016
34.95,32.987
34.981,32.964
35.005,32.943
35.022,32.926
35.031,32.911
35.032,32.896
35.025,32.883
35.01,32.871
34.99,32.86
34.964,32.852
34.934,32.846
34.9,32.844
34.864,32.846
34.824,32.856
34.78,32.875
34.732,32.907
34.68,32.954
34.623,33.02
34.562,33.107
34.496,33.218
34.428,33.358
34.357,33.528
34.285,33.733
34.211,33.976
34.137,34.259
34.064,34.582
33.992,34.944
33.921,35.339
33.851,35.763
33.783,36.207
33.716,36.663
33.65,37.12
33.585,37.568
33.521,37.997
33.459,38.398
33.398,38.761
33.338,39.081
33.279,39.351
33.22,39.57
33.162,39.734
33.105,39.846
33.048,39.905
32.991,39.916
32.935,39.882
32.877,39.81
32.818,39.706
32.759,39.578
32.7,39.43
32.642,39.269
32.584,39.1
32.527,38.925
32.471,38.749
32.417,38.575
32.365,38.406
32.316,38.246
32.27,38.096
32.23,37.956
32.197,37.827
32.174,37.708
32.165,37.596
32.174,37.492
32.206,37.394
32.266,37.302
32.36,37.215
32.491,37.133
32.665,37.054
32.886,36.977
33.156,36.9
33.477,36.825
33.848,36.75
34.268,36.674
34.731,36.597
35.232,36.516
35.761,36.433
36.311,36.348
36.869,36.261
37.425,36.174
37.971,36.086
38.494,36
38.988,35.915
39.443,35.832
39.853,35.752
40.214,35.676
40.523,35.603
40.778,35.536
40.979,35.473
41.129,35.416
41.23,35.364
41.284,35.319
41.296,35.281
41.269,35.251
41.208,35.228
41.116,35.213
41,35.206
40.863,35.205
40.71,35.211
40.546,35.221
40.374,35.236
40.197,35.254
40.018,35.272
39.839,35.291
39.662,35.307
39.487,35.321
39.315,35.334
39.147,35.345
38.983,35.355
38.822,35.363
38.665,35.369
38.511,35.374
38.36,35.377
38.212,35.379
38.065,35.379
37.917,35.376
37.769,35.369
37.62,35.359
37.47,35.345
37.32,35.326
37.17,35.303
37.02,35.276
36.871,35.245
36.723,35.21
36.575,35.17
36.429,35.125
36.284,35.075
36.142,35.02
36.003,34.963
35.867,34.902
35.734,34.84
35.605,34.777
35.481,34.712
35.363,34.648
35.251,34.585
35.147,34.524
35.05,34.466
34.962,34.409
34.885,34.355
34.819,34.303
34.765,34.253
34.723,34.206
34.694,34.16
34.677,34.113
34.67,34.065
34.674,34.016
34.687,33.965
34.708,33.912
34.736,33.858
34.769,33.803
34.805,33.748
34.844,33.693
34.883,33.639
34.923,33.586
34.962,33.535
34.999,33.487
35.032,33.441
35.062,33.396
35.087,33.354
35.107,33.313
35.121,33.273
35.129,33.234
35.131,33.194
35.127,33.154
35.116,33.113
35.099,33.073
35.078,33.035
35.052,32.999
35.022,32.967
34.989,32.941
34.953,32.92
34.914,32.904
34.871,32.895
34.826,32.896
34.777,32.91
34.724,32.939
34.669,32.987
34.61,33.055
34.55,33.148
34.486,33.268
34.42,33.418
34.351,33.6
34.281,33.817
34.209,34.069
34.135,34.358
34.06,34.684
33.986,35.044
33.911,35.436
33.836,35.854
33.761,36.291
33.686,36.739
33.611,37.187
33.537,37.621
33.465,38.032
33.394,38.41
33.325,38.748
33.258,39.041
33.194,39.284
33.133,39.476
33.073,39.617
33.015,39.707
32.957,39.75
32.9,39.75
32.843,39.712
32.786,39.642
32.73,39.547
32.674,39.431
32.62,39.299
32.567,39.155
32.514,39.005
32.463,38.852
32.411,38.698
32.36,38.545
32.308,38.396
32.257,38.252
32.208,38.112
32.165,37.977
32.129,37.846
32.106,37.72
32.097,37.599
32.109,37.483
32.143,37.371
32.206,37.263
32.302,37.156
32.435,37.052
32.611,36.948
32.835,36.845
33.108,36.742
33.434,36.642
33.811,36.544
34.237,36.448
34.707,36.352
35.215,36.257
35.751,36.162
36.307,36.067
36.872,35.971
37.438,35.874
37.994,35.774
38.529,35.674
39.033,35.575
39.497,35.479
39.914,35.386
40.279,35.299
40.589,35.219
40.842,35.146
41.038,35.079
41.18,35.019
41.271,34.967
41.314,34.922
41.314,34.886
41.276,34.858
41.205,34.84
41.105,34.829
40.983,34.826
40.843,34.828
40.689,34.837
40.526,34.85
40.357,34.868
40.185,34.891
40.011,34.918
39.838,34.948
39.666,34.979
39.497,35.011
39.329,35.042
39.164,35.07
39.002,35.093
38.843,35.11
38.689,35.121
38.537,35.124
38.389,35.122
38.244,35.112
38.101,35.097
37.962,35.076
37.825,35.05
37.689,35.02
37.554,34.987
37.42,34.95
37.284,34.912
37.147,34.873
37.007,34.832
36.864,34.79
36.719,34.747
36.573,34.703
36.426,34.66
36.28,34.615
36.135,34.57
35.993,34.525
35.855,34.479
35.721,34.435
35.592,34.391
35.468,34.349
35.351,34.308
35.241,34.27
35.139,34.233
35.046,34.197
34.963,34.162
34.892,34.126
34.833,34.09
34.787,34.052
34.754,34.012
34.733,33.97
34.724,33.926
34.724,33.882
34.732,33.839
34.747,33.797
34.767,33.755
34.793,33.715
34.824,33.675
34.857,33.637
34.893,33.6
34.929,33.564
34.963,33.529
34.996,33.496
35.024,33.465
35.049,33.433
35.068,33.402
35.082,33.369
35.091,33.336
35.094,33.301
35.093,33.265
35.087,33.229
35.078,33.193
35.065,33.158
35.048,33.124
35.027,33.094
35,33.068
34.969,33.049
34.932,33.039
34.89,33.041
34.844,33.058
34.793,33.093
34.739,33.148
34.682,33.227
34.622,33.332
34.559,33.464
34.493,33.627
34.427,33.823
34.359,34.055
34.292,34.325
34.224,34.633
34.157,34.976
34.089,35.352
34.022,35.754
33.954,36.175
33.884,36.606
33.813,37.038
33.74,37.462
33.666,37.868
33.591,38.247
33.515,38.59
33.438,38.891
33.361,39.147
33.285,39.353
33.209,39.51
33.133,39.617
33.06,39.674
32.989,39.686
32.921,39.655
32.855,39.586
32.791,39.485
32.731,39.357
32.673,39.21
32.619,39.049
32.569,38.88
32.522,38.707
32.478,38.533
32.437,38.363
32.396,38.2
32.356,38.044
32.317,37.899
32.277,37.764
32.237,37.641
32.197,37.528
32.157,37.425
32.115,37.33
32.074,37.243
32.035,37.162
32,37.084
31.97,37.008
31.949,36.932
31.939,36.854
31.945,36.773
31.971,36.689
32.022,36.602
32.104,36.512
32.223,36.421
32.384,36.328
32.59,36.235
32.846,36.14
33.154,36.043
33.513,35.946
33.922,35.849
34.378,35.753
34.873,35.66
35.402,35.571
35.955,35.488
36.522,35.411
37.092,35.34
37.655,35.276
38.2,35.217
38.718,35.163
39.199,35.113
39.637,35.068
40.025,35.028
40.358,34.995
40.634,34.969
40.852,34.951
41.016,34.941
41.125,34.938
41.185,34.943
41.2,34.953
41.174,34.968
41.114,34.985
41.024,35.004
40.909,35.025
40.774,35.046
40.626,35.068
40.467,35.091
40.302,35.115
40.133,35.138
39.962,35.159
39.792,35.177
39.624,35.192
39.459,35.201
39.296,35.205
39.137,35.205
38.981,35.199
38.829,35.19
38.679,35.175
38.531,35.157
38.385,35.135
38.24,35.109
38.096,35.08
37.952,35.047
37.808,35.01
37.665,34.97
37.521,34.927
37.379,34.882
37.238,34.835
37.097,34.787
36.958,34.738
36.819,34.687
36.682,34.634
36.545,34.579
36.408,34.523
36.271,34.465
36.133,34.407
35.995,34.349
35.858,34.291
35.723,34.233
35.591,34.177
35.465,34.122
35.346,34.068
35.236,34.016
35.135,33.965
35.044,33.913
34.963,33.859
34.89,33.805
34.826,33.748
34.771,33.691
34.724,33.635
34.688,33.579
34.661,33.524
34.643,33.472
34.634,33.422
34.633,33.376
34.64,33.331
34.653,33.288
34.672,33.245
34.695,33.204
34.72,33.164
34.748,33.126
34.775,33.089
34.802,33.055
34.827,33.024
34.849,32.996
34.87,32.972
34.887,32.955
34.903,32.946
34.915,32.948
34.925,32.965
34.932,32.998
34.936,33.05
34.935,33.125
34.929,33.226
34.917,33.355
34.898,33.517
34.872,33.713
34.838,33.947
34.798,34.219
34.751,34.531
34.7,34.881
34.645,35.266
34.586,35.681
34.525,36.117
34.461,36.566
34.395,37.016
34.326,37.458
34.255,37.88
34.182,38.274
34.107,38.631
34.032,38.944
33.957,39.208
33.882,39.42
33.808,39.578
33.735,39.683
33.665,39.738
33.596,39.746
33.528,39.712
33.461,39.642
33.395,39.542
33.33,39.415
33.264,39.268
33.199,39.104
33.133,38.931
33.067,38.753
33.002,38.575
32.938,38.401
32.875,38.233
32.812,38.073
32.749,37.923
32.687,37.783
32.625,37.652
32.562,37.53
32.5,37.416
32.439,37.31
32.378,37.211
32.318,37.117
32.26,37.029
32.203,36.947
32.149,36.87
32.095,36.795
32.043,36.723
31.993,36.652
31.944,36.58
31.898,36.507
31.855,36.432
31.816,36.355
31.781,36.276
31.751,36.196
31.727,36.114
31.713,36.031
31.709,35.946
31.719,35.86
31.747,35.773
31.798,35.685
31.878,35.596
31.99,35.508
32.14,35.424
32.334,35.344
32.575,35.271
32.866,35.206
33.207,35.15
33.598,35.103
34.036,35.064
34.517,35.032
35.034,35.007
35.579,34.988
36.142,34.976
36.713,34.968
37.281,34.966
37.836,34.969
38.367,34.976
38.866,34.988
39.324,35.003
39.735,35.019
40.094,35.035
40.397,35.05
40.642,35.062
40.83,35.071
40.961,35.077
41.04,35.082
41.072,35.084
41.062,35.086
41.015,35.086
40.937,35.082
40.833,35.075
40.708,35.065
40.565,35.051
40.41,35.035
40.248,35.016
40.08,34.996
39.91,34.973
39.739,34.948
39.569,34.922
39.398,34.894
39.229,34.864
39.061,34.833
38.895,34.801
38.731,34.769
38.57,34.736
38.412,34.703
38.256,34.669
38.102,34.632
37.951,34.592
37.802,34.549
37.656,34.501
37.512,34.45
37.37,34.394
37.229,34.336
37.088,34.275
36.947,34.211
36.806,34.147
36.664,34.082
36.523,34.017
36.38,33.953
36.238,33.892
36.096,33.835
35.954,33.781
35.812,33.73
35.672,33.681
35.535,33.633
35.403,33.587
35.275,33.541
35.154,33.495
35.041,33.449
34.937,33.404
34.843,33.361
34.759,33.319
34.685,33.277
34.622,33.235
34.57,33.192
34.529,33.149
34.5,33.107
34.481,33.066
34.473,33.028
34.474,32.992
34.483,32.96
34.5,32.931
34.522,32.905
34.548,32.883
34.578,32.866
34.61,32.856
34.642,32.854
34.673,32.863
34.702,32.887
34.728,32.927
34.749,32.986
34.766,33.068
34.78,33.174
34.789,33.308
34.796,33.475
34.799,33.679
34.799,33.923
34.795,34.208
34.787,34.535
34.776,34.903
34.761,35.305
34.742,35.736
34.72,36.186
34.694,36.646
34.663,37.103
34.627,37.547
34.585,37.965
34.538,38.351
34.485,38.696
34.429,38.995
34.367,39.243
34.302,39.44
34.234,39.583
34.164,39.674
34.092,39.717
34.02,39.715
33.946,39.673
33.871,39.596
33.796,39.492
33.72,39.367
33.643,39.225
33.566,39.071
33.491,38.911
33.416,38.748
33.343,38.586
33.272,38.425
33.201,38.27
33.131,38.12
33.061,37.978
32.99,37.845
32.919,37.722
32.848,37.607
32.776,37.501
32.706,37.403
32.638,37.31
32.573,37.222
32.51,37.137
32.449,37.054
32.391,36.972
32.334,36.891
32.277,36.81
32.221,36.727
32.167,36.643
32.113,36.557
32.061,36.471
32.011,36.386
31.962,36.3
31.915,36.214
31.87,36.128
31.826,36.042
31.783,35.958
31.741,35.875
31.699,35.795
31.658,35.717
31.618,35.643
31.579,35.572
31.543,35.504
31.51,35.439
31.482,35.378
31.46,35.323
31.444,35.273
31.438,35.229
31.443,35.191
31.463,35.159
31.502,35.133
31.564,35.112
31.655,35.095
31.781,35.082
31.949,35.071
32.162,35.063
32.425,35.057
32.74,35.052
33.108,35.049
33.528,35.048
33.994,35.049
34.502,35.052
35.042,35.057
35.607,35.065
36.185,35.073
36.767,35.084
37.342,35.095
37.9,35.106
38.432,35.115
38.928,35.122
39.382,35.125
39.787,35.125
40.14,35.121
40.437,35.112
40.679,35.099
40.866,35.082
40.999,35.059
41.08,35.033
41.115,35.002
41.106,34.968
41.058,34.928
40.976,34.884
40.866,34.835
40.732,34.783
40.579,34.729
40.412,34.676
40.234,34.624
40.05,34.574
39.86,34.526
39.669,34.478
39.477,34.43
39.287,34.381
39.1,34.331
38.917,34.281
38.738,34.232
38.564,34.183
38.393,34.135
38.226,34.088
38.062,34.043
37.901,33.998
37.741,33.952
37.582,33.906
37.424,33.857
37.267,33.807
37.11,33.757
36.953,33.706
36.797,33.655
36.642,33.606
36.487,33.556
36.332,33.508
36.178,33.46
36.023,33.413
35.869,33.366
35.716,33.32
35.565,33.275
35.416,33.231
35.272,33.188
35.132,33.146
34.998,33.106
34.872,33.068
34.76,33.032
34.663,32.999
34.582,32.972
34.518,32.952
34.467,32.938
34.428,32.929
34.399,32.923
34.379,32.918
34.366,32.915
34.36,32.912
34.359,32.909
34.361,32.909
34.368,32.913
34.379,32.925
34.393,32.947
34.411,32.984
34.432,33.04
34.457,33.119
34.485,33.227
34.514,33.368
34.546,33.545
34.578,33.763
34.61,34.022
34.642,34.325
34.673,34.671
34.7,35.055
34.722,35.472
34.739,35.914
34.752,36.372
34.759,36.834
34.762,37.291
34.761,37.733
34.754,38.151
34.743,38.534
34.727,38.875
34.706,39.167
34.679,39.405
34.647,39.587
34.609,39.711
34.566,39.78
34.516,39.797
34.46,39.767
34.4,39.695
34.336,39.588
34.268,39.453
34.197,39.297
34.122,39.129
34.045,38.952
33.964,38.773
33.882,38.595
33.798,38.42
33.714,38.252
33.631,38.091
33.549,37.94
33.47,37.799
33.393,37.669
33.319,37.548
33.248,37.438
33.181,37.337
33.119,37.243
33.059,37.155
33.002,37.072
32.947,36.993
32.893,36.916
32.84,36.84
32.787,36.763
32.734,36.686
32.679,36.608
32.623,36.529
32.565,36.448
32.505,36.364
32.445,36.279
32.384,36.193
32.323,36.107
32.264,36.021
32.205,35.936
32.149,35.854
32.095,35.775
32.043,35.699
31.993,35.625
31.945,35.554
31.897,35.487
31.852,35.424
31.808,35.365
31.766,35.311
31.726,35.261
31.688,35.216
31.654,35.175
31.624,35.14
31.598,35.109
31.576,35.082
31.559,35.059
31.549,35.041
31.546,35.028
31.552,35.018
31.569,35.014
31.601,35.014
31.655,35.018
31.734,35.026
31.844,35.036
31.992,35.048
32.182,35.062
32.42,35.077
32.706,35.092
33.042,35.106
33.428,35.119
33.861,35.131
34.335,35.141
34.846,35.149
35.384,35.155
35.94,35.159
36.506,35.158
37.072,35.153
37.628,35.142
38.163,35.128
38.669,35.109
39.138,35.087
39.564,35.062
39.941,35.033
40.265,35
40.533,34.964
40.744,34.923
40.898,34.877
40.997,34.828
41.044,34.775
41.043,34.719
40.998,34.662
40.915,34.604
40.801,34.546
40.66,34.488
40.498,34.43
40.322,34.372
40.137,34.311
39.946,34.247
39.753,34.18
39.56,34.112
39.369,34.045
39.181,33.979
38.996,33.915
38.814,33.854
38.633,33.796
38.453,33.741
38.274,33.689
38.094,33.64
37.914,33.593
37.734,33.548
37.553,33.504
37.373,33.461
37.193,33.421
37.014,33.382
36.835,33.345
36.658,33.309
36.482,33.274
36.307,33.24
36.135,33.207
35.964,33.174
35.795,33.142
35.629,33.109
35.466,33.076
35.306,33.042
35.151,33.009
35.001,32.976
34.858,32.942
34.722,32.908
34.594,32.875
34.477,32.843
34.372,32.813
34.28,32.785
34.2,32.759
34.134,32.736
34.082,32.717
34.043,32.702
34.016,32.694
34.001,32.694
33.998,32.704
34.007,32.727
34.025,32.767
34.052,32.827
34.088,32.912
34.132,33.025
34.182,33.171
34.236,33.353
34.294,33.574
34.354,33.836
34.413,34.139
34.47,34.483
34.525,34.864
34.577,35.277
34.625,35.714
34.669,36.168
34.707,36.628
34.739,37.085
34.767,37.53
34.788,37.953
34.803,38.345
34.81,38.698
34.808,39.006
34.798,39.263
34.78,39.466
34.753,39.613
34.72,39.705
34.682,39.745
34.64,39.736
34.595,39.684
34.549,39.594
34.501,39.474
34.452,39.331
34.403,39.172
34.352,39.004
34.299,38.833
34.243,38.662
34.185,38.496
34.124,38.335
34.06,38.181
33.995,38.033
33.927,37.892
33.859,37.759
33.788,37.632
33.717,37.513
33.645,37.401
33.57,37.296
33.495,37.198
33.419,37.105
33.343,37.017
33.266,36.935
33.188,36.856
33.111,36.778
33.034,36.701
32.959,36.624
32.885,36.547
32.813,36.469
32.743,36.39
32.676,36.31
32.612,36.23
32.549,36.148
32.488,36.066
32.429,35.984
32.373,35.901
32.318,35.818
32.265,35.736
32.214,35.656
32.165,35.576
32.119,35.498
32.075,35.423
32.032,35.351
31.992,35.282
31.954,35.219
31.918,35.16
31.884,35.108
31.853,35.065
31.824,35.029
31.801,35.001
31.783,34.981
31.774,34.968
31.775,34.963
31.792,34.964
31.828,34.971
31.887,34.983
31.975,34.998
32.097,35.016
32.258,35.036
32.464,35.054
32.718,35.072
33.022,35.087
33.377,35.101
33.782,35.112
34.234,35.118
34.728,35.12
35.256,35.117
35.809,35.111
36.379,35.101
36.955,35.088
37.527,35.073
38.083,35.055
38.614,35.033
39.11,35.009
39.562,34.982
39.966,34.954
40.316,34.924
40.611,34.891
40.849,34.855
41.032,34.817
41.161,34.776
41.239,34.734
41.269,34.691
41.255,34.645
41.204,34.597
41.119,34.548
41.008,34.498
40.874,34.447
40.722,34.394
40.557,34.341
40.382,34.285
40.2,34.229
40.013,34.172
39.825,34.115
39.637,34.058
39.451,34.003
39.268,33.948
39.088,33.894
38.911,33.839
38.738,33.783
38.567,33.727
38.399,33.67
38.232,33.613
38.066,33.555
37.9,33.499
37.734,33.446
37.566,33.394
37.396,33.346
37.225,33.299
37.052,33.256
36.879,33.216
36.708,33.177
36.539,33.139
36.373,33.104
36.211,33.07
36.052,33.039
35.897,33.009
35.746,32.979
35.599,32.949
35.456,32.919
35.317,32.889
35.182,32.859
35.052,32.829
34.926,32.799
34.808,32.77
34.698,32.742
34.596,32.714
34.504,32.687
34.422,32.662
34.351,32.639
34.293,32.619
34.248,32.603
34.215,32.594
34.194,32.593
34.184,32.603
34.184,32.625
34.193,32.662
34.209,32.717
34.231,32.792
34.26,32.89
34.293,33.016
34.33,33.171
34.371,33.357
34.415,33.578
34.461,33.836
34.509,34.132
34.555,34.466
34.598,34.836
34.638,35.238
34.672,35.667
34.699,36.115
34.719,36.574
34.732,37.034
34.738,37.484
34.738,37.915
34.731,38.316
34.719,38.677
34.701,38.991
34.677,39.25
34.647,39.453
34.612,39.598
34.571,39.685
34.524,39.718
34.473,39.701
34.417,39.642
34.358,39.547
34.296,39.423
34.233,39.277
34.17,39.115
34.106,38.944
34.041,38.768
33.974,38.59
33.906,38.415
33.837,38.244
33.767,38.081
33.695,37.926
33.623,37.781
33.55,37.645
33.477,37.519
33.405,37.404
33.334,37.298
33.264,37.199
33.197,37.107
33.131,37.021
33.066,36.94
33.002,36.86
32.938,36.781
32.873,36.703
32.808,36.623
32.743,36.544
32.678,36.465
32.612,36.384
32.546,36.304
32.481,36.223
32.415,36.141
32.351,36.058
32.286,35.974
32.222,35.89
32.158,35.805
32.096,35.72
32.036,35.637
31.978,35.554
31.924,35.475
31.875,35.399
31.83,35.328
31.79,35.262
31.755,35.201
31.724,35.147
31.698,35.098
31.676,35.054
31.659,35.014
31.65,34.979
31.652,34.948
31.668,34.921
31.705,34.9
31.767,34.885
31.858,34.875
31.985,34.873
32.152,34.876
32.364,34.885
32.625,34.896
32.936,34.908
33.299,34.923
33.711,34.938
34.171,34.954
34.674,34.969
35.213,34.983
35.781,34.994
36.37,35.003
36.969,35.009
37.567,35.012
38.153,35.011
38.716,35.008
39.247,35.001
39.736,34.991
40.176,34.979
40.561,34.965
40.889,34.948
41.155,34.928
41.361,34.905
41.507,34.878
41.595,34.849
41.631,34.818
41.619,34.784
41.568,34.749
41.482,34.711
41.368,34.671
41.232,34.627
41.079,34.581
40.915,34.532
40.743,34.48
40.567,34.426
40.388,34.372
40.21,34.316
40.033,34.26
39.858,34.205
39.685,34.15
39.515,34.096
39.346,34.043
39.181,33.989
39.018,33.935
38.857,33.881
38.697,33.828
38.538,33.777
38.379,33.727
38.22,33.677
38.061,33.628
37.902,33.579
37.742,33.53
37.583,33.482
37.424,33.435
37.265,33.388
37.107,33.342
36.951,33.295
36.796,33.249
36.643,33.205
36.49,33.162
36.338,33.12
36.186,33.078
36.036,33.038
35.888,32.998
35.742,32.961
35.601,32.925
35.465,32.891
35.336,32.858
35.214,32.827
35.101,32.799
34.997,32.772
34.902,32.747
34.818,32.724
34.744,32.704
34.68,32.686
34.625,32.671
34.579,32.662
34.542,32.658
34.514,32.662
34.494,32.677
34.482,32.704
34.477,32.745
34.481,32.803
34.49,32.882
34.506,32.984
34.526,33.111
34.55,33.266
34.577,33.452
34.607,33.671
34.638,33.926
34.67,34.218
34.703,34.545
34.735,34.905
34.766,35.295
34.794,35.708
34.819,36.137
34.838,36.574
34.851,37.01
34.857,37.434
34.856,37.838
34.848,38.213
34.832,38.55
34.81,38.844
34.781,39.089
34.743,39.282
34.697,39.423
34.645,39.51
34.587,39.547
34.523,39.538
34.456,39.488
34.386,39.404
34.313,39.293
34.239,39.161
34.164,39.015
34.09,38.859
34.016,38.698
33.942,38.535
33.87,38.372
33.797,38.213
33.724,38.059
33.652,37.913
33.58,37.775
33.509,37.647
33.438,37.529
33.368,37.419
33.299,37.319
33.23,37.226
33.16,37.137
33.091,37.053
33.021,36.97
32.95,36.887
32.879,36.803
32.808,36.719
32.737,36.634
32.667,36.548
32.6,36.459
32.535,36.368
32.473,36.277
32.413,36.185
32.354,36.094
32.298,36.001
32.242,35.908
32.189,35.814
32.137,35.72
32.085,35.628
32.035,35.535
31.985,35.443
31.937,35.353
31.889,35.266
31.844,35.183
31.8,35.106
31.76,35.035
31.722,34.972
31.687,34.918
31.656,34.872
31.629,34.833
31.607,34.802
31.593,34.777
31.589,34.76
31.599,34.75
31.626,34.746
31.676,34.747
31.755,34.752
31.866,34.76
32.016,34.771
32.21,34.782
32.451,34.793
32.744,34.803
33.089,34.812
33.485,34.82
33.932,34.827
34.423,34.834
34.955,34.842
35.518,34.848
36.103,34.853
36.703,34.855
37.305,34.854
37.901,34.85
38.479,34.843
39.031,34.834
39.546,34.822
40.019,34.807
40.441,34.792
40.809,34.774
41.119,34.755
41.37,34.732
41.562,34.705
41.697,34.673
41.777,34.638
41.808,34.598
41.793,34.554
41.739,34.507
41.649,34.458
41.53,34.406
41.385,34.354
41.221,34.3
41.042,34.246
40.852,34.191
40.654,34.135
40.451,34.078
40.246,34.02
40.041,33.961
39.839,33.901
39.639,33.841
39.445,33.781
39.254,33.72
39.07,33.661
38.89,33.602
38.715,33.546
38.543,33.49
38.375,33.436
38.208,33.382
38.043,33.33
37.878,33.28
37.712,33.231
37.546,33.185
37.38,33.14
37.216,33.098
37.051,33.056
36.887,33.017
36.724,32.98
36.563,32.945
36.403,32.913
36.246,32.882
36.089,32.853
35.935,32.825
35.782,32.798
35.631,32.772
35.484,32.746
35.341,32.721
35.205,32.696
35.076,32.672
34.956,32.65
34.845,32.631
34.744,32.615
34.653,32.602
34.572,32.593
34.5,32.587
34.437,32.585
34.383,32.589
34.336,32.603
34.298,32.627
34.268,32.665
34.248,32.718
34.236,32.788
34.234,32.88
34.241,32.996
34.256,33.14
34.277,33.313
34.303,33.519
34.333,33.76
34.367,34.037
34.402,34.352
34.439,34.703
34.477,35.086
34.514,35.496
34.551,35.926
34.585,36.367
34.616,36.809
34.643,37.242
34.665,37.66
34.681,38.051
34.69,38.408
34.692,38.723
34.685,38.995
34.671,39.218
34.649,39.392
34.621,39.515
34.587,39.587
34.547,39.612
34.503,39.591
34.455,39.53
34.404,39.435
34.349,39.311
34.292,39.165
34.231,39.002
34.169,38.83
34.104,38.653
34.037,38.475
33.969,38.3
33.9,38.129
33.83,37.967
33.758,37.815
33.685,37.673
33.61,37.541
33.533,37.417
33.454,37.302
33.372,37.193
33.289,37.09
33.206,36.992
33.123,36.897
33.04,36.805
32.96,36.713
32.881,36.622
32.806,36.529
32.734,36.436
32.665,36.342
32.599,36.247
32.536,36.151
32.475,36.056
32.417,35.96
32.362,35.865
32.308,35.769
32.256,35.672
32.206,35.577
32.157,35.483
32.11,35.391
32.064,35.302
32.021,35.219
31.979,35.141
31.937,35.069
31.896,35.003
31.854,34.942
31.812,34.887
31.77,34.838
31.729,34.795
31.688,34.759
31.648,34.729
31.61,34.705
31.576,34.687
31.546,34.675
31.524,34.667
31.51,34.663
31.508,34.662
31.522,34.662
31.556,34.663
31.615,34.667
31.706,34.674
31.832,34.684
32.001,34.698
32.216,34.716
32.482,34.737
32.8,34.759
33.171,34.782
33.594,34.804
34.067,34.824
34.584,34.841
35.137,34.854
35.717,34.861
36.314,34.863
36.916,34.861
37.513,34.854
38.094,34.842
38.648,34.826
39.165,34.804
39.638,34.778
40.058,34.748
40.421,34.713
40.724,34.675
40.966,34.634
41.147,34.589
41.271,34.54
41.341,34.488
41.363,34.435
41.342,34.38
41.283,34.325
41.192,34.27
41.074,34.216
40.935,34.161
40.778,34.108
40.61,34.056
40.433,34.004
40.25,33.953
40.064,33.903
39.874,33.852
39.684,33.803
39.493,33.754
39.305,33.707
39.118,33.66
38.935,33.614
38.757,33.569
38.582,33.522
38.413,33.475
38.247,33.427
38.084,33.38
37.923,33.334
37.763,33.29
37.604,33.247
37.444,33.206
37.284,33.165
37.122,33.125
36.961,33.085
36.798,33.044
36.636,33.003
36.474,32.962
36.314,32.921
36.156,32.879
36,32.838
35.848,32.798
35.698,32.76
35.552,32.723
35.409,32.688
35.271,32.656
35.138,32.627
35.01,32.602
34.891,32.582
34.781,32.569
34.681,32.563
34.591,32.566
34.511,32.58
34.442,32.607
34.384,32.652
34.337,32.716
34.3,32.802
34.272,32.913
34.255,33.05
34.248,33.214
34.25,33.408
34.26,33.633
34.278,33.89
34.303,34.181
34.334,34.503
34.37,34.857
34.409,35.238
34.449,35.64
34.491,36.058
34.532,36.483
34.57,36.906
34.606,37.318
34.639,37.709
34.669,38.072
34.695,38.4
34.716,38.687
34.732,38.931
34.743,39.129
34.749,39.279
34.749,39.381
34.743,39.437
34.729,39.45
34.709,39.422
34.683,39.358
34.65,39.264
34.611,39.145
34.567,39.006
34.519,38.853
34.467,38.691
34.414,38.525
34.357,38.36
34.299,38.197
34.238,38.039
34.176,37.887
34.112,37.74
34.045,37.599
33.976,37.465
33.905,37.337
33.834,37.216
33.761,37.1
33.687,36.99
33.613,36.884
33.538,36.781
33.464,36.679
33.391,36.578
33.319,36.478
33.247,36.377
33.175,36.276
33.103,36.174
33.032,36.07
32.961,35.965
32.891,35.86
32.824,35.753
32.76,35.646
32.699,35.539
32.64,35.432
32.584,35.326
32.529,35.221
32.475,35.119
32.421,35.02
32.367,34.928
32.314,34.844
32.261,34.768
32.211,34.703
32.161,34.647
32.113,34.602
32.066,34.567
32.019,34.542
31.972,34.528
31.925,34.522
31.88,34.526
31.838,34.537
31.804,34.554
31.779,34.578
31.768,34.605
31.774,34.636
31.802,34.669
31.857,34.702
31.945,34.736
32.069,34.768
32.234,34.798
32.444,34.825
32.704,34.848
33.015,34.867
33.378,34.883
33.79,34.895
34.25,34.903
34.75,34.908
35.285,34.91
35.844,34.908
36.419,34.903
36.997,34.895
37.569,34.882
38.123,34.867
38.65,34.85
39.141,34.831
39.588,34.81
39.986,34.787
40.329,34.761
40.615,34.733
40.844,34.701
41.015,34.664
41.133,34.619
41.199,34.567
41.218,34.51
41.193,34.449
41.13,34.388
41.034,34.326
40.91,34.266
40.764,34.207
40.599,34.149
40.421,34.093
40.233,34.039
40.039,33.986
39.842,33.934
39.644,33.884
39.447,33.835
39.254,33.789
39.064,33.745
38.878,33.703
38.695,33.662
38.513,33.621
38.333,33.578
38.154,33.534
37.976,33.489
37.799,33.443
37.622,33.397
37.446,33.352
37.272,33.308
37.098,33.266
36.925,33.225
36.752,33.186
36.579,33.147
36.407,33.108
36.234,33.07
36.06,33.032
35.888,32.995
35.716,32.961
35.546,32.929
35.38,32.899
35.219,32.871
35.064,32.844
34.916,32.821
34.777,32.801
34.648,32.785
34.529,32.775
34.423,32.772
34.329,32.78
34.249,32.801
34.183,32.839
34.129,32.898
34.088,32.979
34.059,33.086
34.042,33.22
34.034,33.384
34.036,33.58
34.046,33.809
34.065,34.076
34.091,34.384
34.123,34.732
34.16,35.116
34.203,35.532
34.249,35.97
34.299,36.422
34.352,36.878
34.405,37.328
34.459,37.76
34.512,38.166
34.563,38.536
34.611,38.861
34.654,39.135
34.693,39.357
34.725,39.524
34.749,39.639
34.766,39.701
34.774,39.715
34.775,39.686
34.768,39.619
34.753,39.52
34.731,39.396
34.701,39.254
34.664,39.099
34.622,38.937
34.575,38.772
34.525,38.607
34.473,38.444
34.419,38.287
34.364,38.138
34.308,37.998
34.252,37.866
34.195,37.741
34.139,37.623
34.082,37.51
34.023,37.402
33.962,37.298
33.899,37.196
33.833,37.095
33.766,36.994
33.698,36.893
33.629,36.793
33.559,36.694
33.488,36.595
33.416,36.496
33.344,36.397
33.271,36.299
33.2,36.2
33.129,36.102
33.059,36.006
32.99,35.913
32.922,35.823
32.855,35.736
32.79,35.653
32.725,35.573
32.66,35.497
32.597,35.424
32.534,35.354
32.473,35.289
32.413,35.228
32.356,35.17
32.302,35.117
32.25,35.069
32.201,35.026
32.154,34.988
32.11,34.956
32.072,34.929
32.04,34.907
32.019,34.892
32.013,34.885
32.025,34.883
32.061,34.888
32.126,34.897
32.224,34.91
32.36,34.927
32.538,34.945
32.761,34.965
33.031,34.985
33.351,35.004
33.719,35.024
34.135,35.043
34.593,35.061
35.089,35.077
35.616,35.09
36.165,35.101
36.726,35.107
37.289,35.108
37.844,35.106
38.38,35.099
38.889,35.089
39.36,35.075
39.788,35.058
40.167,35.037
40.492,35.013
40.762,34.984
40.975,34.951
41.133,34.913
41.239,34.871
41.295,34.825
41.306,34.776
41.276,34.725
41.21,34.671
41.112,34.615
40.988,34.559
40.843,34.503
40.682,34.446
40.509,34.388
40.328,34.331
40.144,34.274
39.959,34.219
39.776,34.164
39.594,34.109
39.414,34.056
39.235,34.004
39.057,33.954
38.88,33.903
38.704,33.853
38.528,33.805
38.354,33.758
38.18,33.713
38.007,33.67
37.835,33.628
37.664,33.587
37.494,33.545
37.326,33.502
37.16,33.458
36.996,33.414
36.833,33.37
36.671,33.325
36.51,33.28
36.347,33.234
36.184,33.189
36.02,33.144
35.857,33.102
35.696,33.062
35.538,33.024
35.384,32.989
35.237,32.958
35.099,32.932
34.971,32.909
34.852,32.891
34.745,32.88
34.648,32.879
34.563,32.89
34.488,32.916
34.424,32.962
34.371,33.029
34.327,33.121
34.295,33.241
34.273,33.39
34.262,33.573
34.26,33.792
34.267,34.05
34.283,34.349
34.305,34.689
34.334,35.067
34.366,35.479
34.401,35.918
34.436,36.376
34.471,36.84
34.505,37.301
34.538,37.747
34.569,38.168
34.599,38.554
34.626,38.898
34.651,39.194
34.671,39.438
34.687,39.627
34.697,39.763
34.703,39.846
34.702,39.88
34.696,39.869
34.683,39.818
34.664,39.733
34.64,39.618
34.609,39.481
34.573,39.327
34.533,39.162
34.49,38.993
34.444,38.823
34.395,38.657
34.343,38.496
34.288,38.343
34.232,38.199
34.175,38.064
34.116,37.936
34.058,37.816
34,37.703
33.942,37.595
33.884,37.492
33.827,37.395
33.769,37.301
33.711,37.212
33.651,37.125
33.589,37.041
33.524,36.956
33.455,36.873
33.384,36.789
33.311,36.705
33.236,36.621
33.159,36.537
33.082,36.453
33.005,36.369
32.929,36.283
32.855,36.195
32.783,36.104
32.712,36.012
32.644,35.92
32.578,35.827
32.513,35.736
32.451,35.646
32.39,35.56
32.331,35.478
32.274,35.403
32.219,35.334
32.164,35.272
32.112,35.218
32.063,35.173
32.019,35.135
31.98,35.106
31.949,35.085
31.928,35.072
31.92,35.065
31.928,35.063
31.957,35.064
32.011,35.069
32.096,35.078
32.216,35.09
32.376,35.104
32.58,35.12
32.831,35.135
33.133,35.151
33.485,35.166
33.888,35.18
34.338,35.191
34.83,35.2
35.356,35.206
35.909,35.208
36.48,35.207
37.058,35.202
37.632,35.193
38.193,35.18
38.73,35.161
39.234,35.139
39.697,35.112
40.112,35.081
40.475,35.047
40.783,35.009
41.035,34.969
41.231,34.926
41.371,34.882
41.458,34.838
41.497,34.794
41.491,34.751
41.447,34.709
41.369,34.668
41.263,34.628
41.135,34.589
40.989,34.549
40.83,34.508
40.661,34.466
40.486,34.422
40.305,34.375
40.123,34.325
39.94,34.271
39.757,34.216
39.575,34.159
39.394,34.102
39.217,34.045
39.043,33.989
38.871,33.934
38.702,33.881
38.537,33.829
38.375,33.777
38.217,33.726
38.06,33.676
37.906,33.627
37.752,33.579
37.599,33.533
37.448,33.488
37.297,33.443
37.146,33.397
36.996,33.35
36.845,33.302
36.694,33.254
36.542,33.206
36.389,33.159
36.237,33.116
36.085,33.075
35.936,33.037
35.79,33.002
35.648,32.968
35.512,32.935
35.382,32.904
35.258,32.877
35.142,32.855
35.032,32.842
34.929,32.838
34.835,32.846
34.748,32.869
34.67,32.91
34.602,32.969
34.545,33.049
34.5,33.153
34.468,33.285
34.447,33.449
34.438,33.649
34.44,33.887
34.451,34.165
34.469,34.484
34.493,34.842
34.521,35.236
34.551,35.658
34.583,36.104
34.615,36.565
34.647,37.029
34.678,37.485
34.709,37.924
34.738,38.334
34.765,38.707
34.789,39.035
34.808,39.312
34.822,39.536
34.829,39.703
34.83,39.815
34.823,39.875
34.808,39.886
34.786,39.854
34.757,39.784
34.722,39.683
34.682,39.557
34.638,39.411
34.592,39.251
34.543,39.084
34.492,38.912
34.44,38.742
34.386,38.575
34.33,38.417
34.272,38.267
34.212,38.128
34.149,37.999
34.085,37.88
34.019,37.768
33.952,37.663
33.885,37.563
33.818,37.466
33.751,37.371
33.685,37.278
33.62,37.186
33.556,37.096
33.49,37.006
33.423,36.916
33.354,36.826
33.283,36.736
33.209,36.647
33.135,36.559
33.059,36.472
32.984,36.384
32.91,36.296
32.837,36.207
32.766,36.117
32.695,36.028
32.627,35.94
32.559,35.855
32.491,35.773
32.424,35.694
32.357,35.619
32.293,35.548
32.231,35.483
32.172,35.424
32.115,35.372
32.062,35.325
32.014,35.284
31.969,35.248
31.93,35.218
31.896,35.193
31.871,35.172
31.857,35.155
31.858,35.142
31.878,35.131
31.922,35.123
31.994,35.118
32.102,35.118
32.249,35.123
32.442,35.131
32.683,35.143
32.975,35.157
33.319,35.173
33.716,35.19
34.162,35.206
34.654,35.221
35.183,35.233
35.742,35.242
36.322,35.247
36.911,35.249
37.498,35.245
38.072,35.238
38.622,35.226
39.14,35.21
39.617,35.189
40.044,35.163
40.418,35.133
40.734,35.101
40.991,35.067
41.188,35.032
41.327,34.995
41.412,34.958
41.446,34.919
41.435,34.879
41.385,34.839
41.301,34.796
41.188,34.751
41.054,34.704
40.901,34.654
40.736,34.603
40.56,34.549
40.378,34.494
40.193,34.439
40.008,34.383
39.825,34.328
39.644,34.273
39.466,34.218
39.292,34.162
39.121,34.107
38.955,34.051
38.79,33.995
38.626,33.94
38.463,33.886
38.299,33.832
38.134,33.779
37.968,33.725
37.801,33.672
37.635,33.621
37.47,33.57
37.306,33.52
37.142,33.471
36.979,33.424
36.816,33.38
36.655,33.338
36.495,33.298
36.336,33.261
36.177,33.225
36.019,33.191
35.861,33.159
35.705,33.129
35.551,33.1
35.401,33.073
35.255,33.046
35.116,33.018
34.984,32.991
34.861,32.963
34.747,32.934
34.644,32.906
34.551,32.876
34.469,32.848
34.397,32.821
34.336,32.8
34.285,32.784
34.245,32.778
34.216,32.783
34.197,32.803
34.188,32.842
34.188,32.904
34.196,32.991
34.212,33.106
34.234,33.251
34.261,33.429
34.293,33.643
34.331,33.896
34.373,34.191
34.416,34.528
34.46,34.904
34.503,35.317
34.543,35.759
34.58,36.222
34.611,36.698
34.635,37.174
34.652,37.64
34.662,38.084
34.663,38.496
34.655,38.868
34.641,39.191
34.62,39.462
34.594,39.678
34.563,39.837
34.528,39.942
34.49,39.996
34.448,40.003
34.403,39.967
34.356,39.894
34.307,39.791
34.255,39.662
34.201,39.514
34.145,39.351
34.086,39.18
34.024,39.003
33.959,38.826
33.892,38.653
33.821,38.486
33.748,38.328
33.672,38.179
33.595,38.04
33.519,37.912
33.442,37.795
33.367,37.686
33.293,37.584
33.22,37.49
33.149,37.399
33.078,37.312
33.008,37.227
32.94,37.144
32.873,37.062
32.808,36.979
32.745,36.895
32.684,36.811
32.625,36.726
32.568,36.639
32.512,36.551
32.456,36.463
32.4,36.374
32.343,36.286
32.286,36.198
32.229,36.11
32.174,36.022
32.121,35.934
32.07,35.848
32.021,35.765
31.972,35.684
31.924,35.607
31.877,35.534
31.83,35.467
31.786,35.406
31.746,35.35
31.712,35.3
31.685,35.254
31.668,35.212
31.665,35.176
31.677,35.146
31.708,35.123
31.763,35.108
31.845,35.099
31.961,35.098
32.115,35.102
32.313,35.11
32.559,35.12
32.857,35.132
33.209,35.146
33.613,35.159
34.066,35.171
34.564,35.182
35.098,35.192
35.659,35.2
36.238,35.205
36.824,35.207
37.405,35.206
37.969,35.201
38.506,35.192
39.008,35.18
39.466,35.166
39.875,35.149
40.23,35.129
40.53,35.107
40.773,35.081
40.96,35.053
41.094,35.021
41.176,34.988
41.213,34.954
41.207,34.918
41.163,34.88
41.087,34.842
40.981,34.801
40.852,34.758
40.704,34.712
40.54,34.663
40.363,34.61
40.178,34.553
39.988,34.494
39.796,34.433
39.602,34.371
39.408,34.31
39.215,34.249
39.025,34.188
38.837,34.127
38.652,34.067
38.469,34.007
38.288,33.949
38.11,33.891
37.935,33.834
37.762,33.778
37.591,33.723
37.421,33.67
37.252,33.619
37.083,33.569
36.913,33.521
36.742,33.474
36.569,33.428
36.395,33.383
36.221,33.338
36.048,33.295
35.876,33.255
35.709,33.217
35.546,33.182
35.39,33.15
35.242,33.12
35.102,33.092
34.969,33.065
34.845,33.04
34.73,33.014
34.624,32.989
34.527,32.962
34.441,32.935
34.366,32.907
34.302,32.879
34.25,32.852
34.21,32.826
34.181,32.801
34.163,32.776
34.156,32.749
34.159,32.724
34.171,32.7
34.19,32.678
34.215,32.661
34.246,32.651
34.281,32.65
34.319,32.66
34.361,32.684
34.406,32.726
34.452,32.788
34.5,32.873
34.547,32.986
34.592,33.128
34.634,33.305
34.672,33.519
34.704,33.775
34.73,34.072
34.749,34.412
34.761,34.792
34.767,35.206
34.767,35.649
34.76,36.113
34.747,36.588
34.728,37.064
34.704,37.529
34.674,37.973
34.639,38.386
34.598,38.759
34.555,39.085
34.51,39.362
34.466,39.585
34.422,39.755
34.378,39.872
34.332,39.938
34.285,39.958
34.235,39.935
34.181,39.875
34.124,39.782
34.062,39.664
33.997,39.524
33.926,39.369
33.852,39.203
33.774,39.031
33.693,38.858
33.609,38.689
33.524,38.525
33.438,38.37
33.351,38.223
33.265,38.087
33.18,37.96
33.096,37.841
33.016,37.73
32.938,37.624
32.863,37.521
32.791,37.422
32.722,37.325
32.655,37.232
32.592,37.142
32.534,37.056
32.478,36.974
32.426,36.896
32.376,36.82
32.329,36.744
32.285,36.666
32.243,36.586
32.202,36.504
32.161,36.419
32.12,36.332
32.079,36.243
32.039,36.154
32,36.066
31.965,35.978
31.934,35.891
31.91,35.805
31.897,35.722
31.896,35.642
31.914,35.566
31.953,35.495
32.021,35.429
32.122,35.367
32.261,35.313
32.445,35.264
32.677,35.223
32.961,35.189
33.297,35.162
33.685,35.143
34.122,35.129
34.602,35.122
35.118,35.12
35.661,35.122
36.223,35.129
36.791,35.139
37.357,35.15
37.91,35.163
38.44,35.175
38.937,35.186
39.392,35.197
39.8,35.208
40.156,35.217
40.457,35.226
40.702,35.231
40.892,35.234
41.029,35.235
41.116,35.233
41.156,35.23
41.153,35.224
41.112,35.215
41.036,35.202
40.929,35.188
40.797,35.171
40.644,35.151
40.475,35.127
40.294,35.099
40.105,35.063
39.913,35.022
39.719,34.974
39.526,34.922
39.336,34.865
39.15,34.804
38.969,34.74
38.793,34.674
38.621,34.605
38.453,34.535
38.287,34.464
38.123,34.392
37.959,34.319
37.797,34.245
37.634,34.174
37.471,34.105
37.308,34.039
37.144,33.977
36.979,33.916
36.813,33.857
36.646,33.802
36.478,33.749
36.31,33.7
36.141,33.654
35.974,33.612
35.809,33.572
35.648,33.535
35.492,33.499
35.341,33.463
35.197,33.429
35.06,33.395
34.932,33.361
34.813,33.328
34.703,33.294
34.603,33.261
34.515,33.229
34.438,33.196
34.372,33.164
34.319,33.132
34.277,33.1
34.247,33.066
34.228,33.032
34.22,32.997
34.221,32.962
34.23,32.928
34.246,32.893
34.268,32.86
34.295,32.826
34.327,32.793
34.363,32.761
34.403,32.732
34.445,32.703
34.489,32.676
34.533,32.651
34.575,32.628
34.616,32.609
34.653,32.596
34.684,32.588
34.709,32.588
34.727,32.598
34.738,32.619
34.742,32.655
34.74,32.708
34.733,32.781
34.722,32.877
34.707,32.998
34.689,33.15
34.666,33.335
34.64,33.557
34.609,33.818
34.575,34.12
34.536,34.462
34.492,34.841
34.442,35.255
34.386,35.697
34.327,36.158
34.265,36.629
34.201,37.1
34.136,37.561
34.071,38
34.005,38.407
33.939,38.776
33.872,39.098
33.805,39.37
33.738,39.589
33.671,39.752
33.604,39.86
33.538,39.914
33.471,39.919
33.404,39.879
33.338,39.801
33.27,39.692
33.201,39.559
33.132,39.408
33.061,39.246
32.99,39.077
32.918,38.905
32.845,38.734
32.773,38.568
32.702,38.407
32.632,38.253
32.565,38.107
32.502,37.968
32.442,37.837
32.386,37.713
32.333,37.598
32.284,37.489
32.237,37.387
32.192,37.291
32.15,37.202
32.109,37.118
32.071,37.037
32.036,36.956
32.006,36.876
31.983,36.795
31.969,36.713
31.966,36.63
31.977,36.546
32.006,36.459
32.057,36.372
32.137,36.282
32.251,36.192
32.405,36.099
32.605,36.006
32.855,35.911
33.157,35.816
33.511,35.723
33.916,35.632
34.368,35.545
34.862,35.462
35.389,35.385
35.94,35.313
36.504,35.248
37.071,35.191
37.63,35.142
38.172,35.102
38.686,35.069
39.166,35.044
39.605,35.027
39.997,35.015
40.339,35.008
40.629,35.005
40.864,35.006
41.046,35.011
41.176,35.018
41.257,35.029
41.291,35.044
41.282,35.061
41.234,35.08
41.151,35.1
41.04,35.119
40.905,35.136
40.751,35.152
40.582,35.165
40.404,35.174
40.219,35.18
40.032,35.181
39.845,35.177
39.659,35.17
39.476,35.159
39.297,35.145
39.122,35.127
38.95,35.106
38.782,35.081
38.617,35.052
38.455,35.019
38.296,34.983
38.139,34.943
37.982,34.899
37.827,34.85
37.673,34.798
37.519,34.744
37.365,34.688
37.211,34.632
37.055,34.575
36.898,34.518
36.74,34.462
36.581,34.407
36.422,34.354
36.264,34.302
36.106,34.25
35.95,34.199
35.796,34.146
35.646,34.094
35.5,34.04
35.361,33.986
35.228,33.931
35.103,33.877
34.986,33.823
34.876,33.771
34.776,33.719
34.684,33.671
34.601,33.626
34.527,33.585
34.464,33.547
34.41,33.511
34.366,33.478
34.331,33.446
34.305,33.414
34.289,33.381
34.282,33.349
34.284,33.316
34.294,33.282
34.312,33.248
34.339,33.212
34.373,33.176
34.412,33.138
34.456,33.1
34.502,33.061
34.549,33.023
34.595,32.985
34.638,32.948
34.677,32.913
34.711,32.88
34.738,32.85
34.759,32.823
34.771,32.8
34.775,32.781
34.77,32.767
34.758,32.759
34.738,32.758
34.712,32.764
34.68,32.778
34.644,32.801
34.605,32.835
34.564,32.885
34.52,32.953
34.474,33.042
34.427,33.154
34.378,33.293
34.327,33.46
34.274,33.659
34.217,33.892
34.157,34.159
34.095,34.461
34.03,34.795
33.963,35.158
33.894,35.548
33.823,35.957
33.751,36.38
33.678,36.809
33.604,37.234
33.53,37.646
33.456,38.036
33.383,38.396
33.31,38.718
33.238,38.997
33.166,39.229
33.095,39.413
33.025,39.545
32.954,39.628
32.884,39.663
32.813,39.654
32.742,39.604
32.671,39.521
32.602,39.41
32.534,39.276
32.467,39.126
32.403,38.964
32.339,38.797
32.277,38.627
32.216,38.461
32.154,38.299
32.094,38.143
32.035,37.993
31.978,37.851
31.925,37.717
31.877,37.591
31.836,37.472
31.805,37.358
31.784,37.25
31.778,37.147
31.789,37.047
31.821,36.949
31.879,36.853
31.967,36.758
32.091,36.663
32.257,36.568
32.467,36.472
32.726,36.374
33.035,36.275
33.392,36.175
33.794,36.075
34.239,35.975
34.721,35.876
35.231,35.779
35.762,35.685
36.305,35.594
36.851,35.506
37.391,35.422
37.916,35.341
38.417,35.265
38.888,35.194
39.321,35.129
39.711,35.071
40.055,35.02
40.348,34.978
40.59,34.942
40.779,34.912
40.917,34.889
41.006,34.872
41.049,34.861
41.052,34.856
41.017,34.856
40.949,34.862
40.852,34.874
40.731,34.891
40.588,34.912
40.43,34.937
40.259,34.962
40.079,34.987
39.893,35.01
39.705,35.032
39.518,35.053
39.332,35.072
39.15,35.089
38.972,35.103
38.799,35.113
38.63,35.121
38.466,35.125
38.307,35.125
38.152,35.121
37.999,35.111
37.85,35.097
37.702,35.077
37.555,35.053
37.408,35.023
37.261,34.989
37.113,34.949
36.964,34.904
36.814,34.856
36.664,34.803
36.513,34.747
36.362,34.687
36.212,34.625
36.062,34.561
35.912,34.497
35.763,34.434
35.615,34.371
35.468,34.309
35.325,34.249
35.186,34.192
35.053,34.139
34.929,34.088
34.814,34.041
34.711,33.996
34.618,33.953
34.537,33.912
34.467,33.873
34.409,33.835
34.362,33.797
34.324,33.759
34.294,33.72
34.272,33.681
34.256,33.642
34.247,33.603
34.244,33.562
34.248,33.519
34.259,33.475
34.277,33.43
34.299,33.385
34.325,33.341
34.353,33.297
34.383,33.255
34.413,33.213
34.442,33.173
34.469,33.136
34.494,33.102
34.517,33.069
34.536,33.039
34.552,33.011
34.564,32.983
34.572,32.957
34.575,32.931
34.574,32.905
34.569,32.879
34.561,32.852
34.548,32.826
34.533,32.801
34.512,32.78
34.487,32.763
34.456,32.751
34.419,32.746
34.376,32.751
34.329,32.768
34.277,32.801
34.221,32.852
34.162,32.923
34.1,33.019
34.036,33.142
33.97,33.295
33.902,33.481
33.832,33.703
33.761,33.961
33.689,34.257
33.616,34.59
33.542,34.958
33.469,35.357
33.397,35.781
33.326,36.223
33.256,36.674
33.189,37.124
33.122,37.565
33.057,37.985
32.993,38.375
32.931,38.728
32.869,39.037
32.809,39.297
32.751,39.506
32.693,39.663
32.635,39.767
32.578,39.821
32.521,39.828
32.465,39.794
32.409,39.722
32.354,39.618
32.299,39.489
32.244,39.341
32.191,39.18
32.14,39.011
32.092,38.839
32.046,38.666
32.005,38.497
31.969,38.333
31.94,38.177
31.92,38.028
31.913,37.888
31.921,37.757
31.951,37.634
32.007,37.517
32.092,37.407
32.212,37.302
32.373,37.203
32.578,37.109
32.829,37.018
33.13,36.929
33.479,36.841
33.874,36.753
34.314,36.664
34.791,36.572
35.298,36.476
35.828,36.376
36.371,36.273
36.917,36.168
37.454,36.061
37.973,35.956
38.464,35.852
38.919,35.752
39.332,35.654
39.699,35.56
40.016,35.47
40.282,35.384
40.496,35.303
40.657,35.228
40.768,35.159
40.83,35.099
40.846,35.049
40.822,35.011
40.763,34.985
40.673,34.97
40.558,34.964
40.422,34.965
40.27,34.973
40.106,34.986
39.934,35.002
39.756,35.02
39.576,35.04
39.395,35.06
39.214,35.082
39.035,35.105
38.857,35.127
38.681,35.148
38.506,35.168
38.334,35.184
38.164,35.196
37.996,35.206
37.83,35.213
37.666,35.219
37.503,35.222
37.343,35.222
37.183,35.221
37.025,35.218
36.869,35.213
36.715,35.205
36.563,35.193
36.412,35.176
36.261,35.155
36.112,35.131
35.963,35.104
35.816,35.074
35.67,35.041
35.525,35.005
35.383,34.964
35.244,34.919
35.11,34.87
34.981,34.818
34.86,34.763
34.747,34.704
34.644,34.643
34.549,34.58
34.465,34.516
34.39,34.451
34.325,34.386
34.27,34.32
34.224,34.255
34.187,34.191
34.159,34.128
34.14,34.067
34.131,34.007
34.132,33.947
34.144,33.889
34.165,33.833
34.195,33.778
34.23,33.726
34.271,33.674
34.313,33.625
34.357,33.578
34.399,33.533
34.439,33.487
34.477,33.442
34.512,33.397
34.543,33.351
34.571,33.307
34.595,33.263
34.615,33.22
34.63,33.178
34.639,33.135
34.642,33.092
34.638,33.049
34.627,33.007
34.61,32.967
34.586,32.928
34.555,32.89
34.519,32.852
34.478,32.816
34.433,32.781
34.385,32.746
34.334,32.712
34.28,32.678
34.225,32.645
34.166,32.614
34.105,32.587
34.042,32.565
33.977,32.549
33.909,32.542
33.84,32.545
33.769,32.56
33.697,32.591
33.626,32.64
33.556,32.71
33.486,32.805
33.417,32.926
33.35,33.076
33.283,33.258
33.216,33.473
33.15,33.725
33.084,34.012
33.018,34.335
32.952,34.694
32.886,35.086
32.82,35.506
32.754,35.948
32.69,36.403
32.628,36.864
32.568,37.321
32.508,37.763
32.45,38.182
32.392,38.566
32.334,38.903
32.278,39.183
32.222,39.404
32.169,39.566
32.118,39.673
32.072,39.729
32.029,39.741
31.993,39.714
31.963,39.654
31.943,39.569
31.934,39.464
31.941,39.345
31.967,39.218
32.017,39.085
32.096,38.95
32.211,38.816
32.366,38.684
32.563,38.558
32.807,38.436
33.097,38.32
33.434,38.208
33.814,38.101
34.235,37.998
34.691,37.896
35.176,37.796
35.684,37.696
36.205,37.598
36.731,37.5
37.253,37.404
37.762,37.308
38.25,37.214
38.707,37.12
39.127,37.025
39.505,36.929
39.837,36.832
40.119,36.733
40.351,36.633
40.531,36.534
40.661,36.437
40.744,36.34
40.784,36.246
40.785,36.154
40.751,36.062
40.687,35.972
40.598,35.882
40.488,35.792
40.362,35.702
40.222,35.614
40.072,35.529
39.915,35.449
39.754,35.376
39.59,35.311
39.424,35.253
39.255,35.201
39.087,35.155
38.919,35.116
38.752,35.083
38.586,35.057
38.42,35.036
38.257,35.022
38.095,35.016
37.934,35.018
37.775,35.027
37.616,35.043
37.458,35.064
37.302,35.089
37.146,35.114
36.99,35.138
36.833,35.159
36.675,35.176
36.516,35.189
36.356,35.199
36.196,35.205
36.035,35.207
35.874,35.205
35.715,35.198
35.557,35.187
35.403,35.171
35.253,35.151
35.11,35.126
34.973,35.097
34.846,35.063
34.727,35.026
34.619,34.985
34.523,34.941
34.439,34.895
34.368,34.848
34.31,34.798
34.265,34.747
34.231,34.695
34.209,34.642
34.196,34.588
34.191,34.533
34.195,34.476
34.206,34.418
34.223,34.359
34.245,34.3
34.269,34.241
34.296,34.181
34.325,34.122
34.355,34.062
34.386,34.002
34.418,33.942
34.449,33.882
34.48,33.822
34.509,33.762
34.536,33.702
34.56,33.643
34.582,33.584
34.601,33.526
34.616,33.471
34.626,33.418
34.63,33.368
34.629,33.32
34.621,33.274
34.608,33.231
34.588,33.191
34.563,33.152
34.531,33.115
34.495,33.082
34.453,33.05
34.406,33.019
34.355,32.989
34.3,32.959
34.241,32.929
34.18,32.899
34.117,32.869
34.052,32.837
33.986,32.804
33.919,32.769
33.852,32.734
33.785,32.698
33.719,32.662
33.652,32.627
33.586,32.594
33.52,32.565
33.454,32.541
33.389,32.525
33.325,32.517
33.261,32.52
33.197,32.535
33.134,32.565
33.07,32.613
33.006,32.683
32.942,32.78
32.877,32.904
32.812,33.059
32.745,33.246
32.679,33.468
32.612,33.727
32.546,34.025
32.481,34.359
32.415,34.729
32.35,35.132
32.285,35.563
32.221,36.015
32.157,36.48
32.095,36.951
32.036,37.417
31.982,37.867
31.936,38.291
31.898,38.678
31.873,39.022
31.863,39.317
31.872,39.56
31.905,39.75
31.964,39.887
32.056,39.972
32.185,40.008
32.358,40.001
32.576,39.955
32.844,39.875
33.161,39.767
33.529,39.638
33.944,39.492
34.401,39.335
34.895,39.171
35.417,39.002
35.963,38.833
36.525,38.666
37.094,38.504
37.661,38.348
38.213,38.2
38.74,38.061
39.233,37.931
39.682,37.81
40.079,37.696
40.42,37.589
40.702,37.487
40.924,37.391
41.086,37.298
41.192,37.208
41.245,37.12
41.251,37.034
41.216,36.949
41.145,36.863
41.043,36.776
40.918,36.687
40.773,36.596
40.616,36.504
40.448,36.412
40.275,36.32
40.099,36.229
39.923,36.141
39.747,36.056
39.574,35.973
39.403,35.892
39.237,35.813
39.074,35.734
38.917,35.657
38.764,35.58
38.616,35.504
38.47,35.431
38.328,35.361
38.188,35.295
38.049,35.234
37.911,35.179
37.774,35.13
37.636,35.088
37.496,35.052
37.354,35.02
37.209,34.995
37.061,34.975
36.909,34.962
36.754,34.956
36.597,34.954
36.439,34.956
36.28,34.962
36.123,34.97
35.969,34.98
35.82,34.991
35.676,35.003
35.538,35.015
35.407,35.027
35.283,35.037
35.167,35.045
35.059,35.05
34.959,35.052
34.867,35.05
34.785,35.043
34.713,35.03
34.65,35.013
34.598,34.991
34.555,34.964
34.522,34.932
34.498,34.896
34.483,34.857
34.475,34.816
34.474,34.775
34.478,34.733
34.486,34.69
34.495,34.646
34.505,34.6
34.517,34.552
34.531,34.501
34.548,34.445
34.567,34.385
34.588,34.323
34.61,34.258
34.633,34.193
34.655,34.129
34.676,34.066
34.695,34.005
34.71,33.944
34.722,33.884
34.729,33.825
34.731,33.768
34.727,33.711
34.717,33.656
34.7,33.604
34.678,33.554
34.649,33.507
34.615,33.463
34.575,33.422
34.532,33.382
34.484,33.342
34.433,33.303
34.378,33.263
34.319,33.222
34.258,33.181
34.193,33.139
34.126,33.097
34.058,33.055
33.988,33.012
33.917,32.968
33.846,32.924
33.776,32.88
33.705,32.837
33.636,32.793
33.567,32.75
33.499,32.707
33.432,32.665
33.365,32.623
33.298,32.582
33.231,32.543
33.165,32.506
33.099,32.473
33.034,32.444
32.969,32.421
32.904,32.407
32.839,32.402
32.774,32.41
32.709,32.431
32.645,32.469
32.58,32.527
32.515,32.608
32.449,32.716
32.382,32.854
32.314,33.022
32.248,33.224
32.182,33.46
32.117,33.732
32.055,34.041
31.999,34.387
31.951,34.768
31.915,35.18
31.894,35.619
31.895,36.077
31.922,36.546
31.979,37.017
32.073,37.48
32.207,37.924
32.391,38.34
32.631,38.719
32.927,39.054
33.279,39.34
33.682,39.572
34.131,39.75
34.618,39.875
35.135,39.949
35.673,39.976
36.221,39.961
36.772,39.909
37.314,39.825
37.84,39.714
38.34,39.581
38.806,39.433
39.233,39.272
39.614,39.106
39.948,38.939
40.231,38.773
40.462,38.611
40.642,38.455
40.772,38.307
40.855,38.166
40.894,38.033
40.894,37.907
40.859,37.787
40.794,37.672
40.704,37.56
40.593,37.452
40.466,37.347
40.326,37.244
40.177,37.143
40.021,37.044
39.86,36.945
39.695,36.847
39.527,36.749
39.357,36.648
39.187,36.545
39.016,36.44
38.846,36.331
38.676,36.222
38.509,36.111
38.342,36.002
38.178,35.896
38.014,35.794
37.852,35.695
37.693,35.6
37.536,35.509
37.38,35.423
37.226,35.341
37.073,35.264
36.922,35.192
36.772,35.126
36.623,35.066
36.475,35.013
36.328,34.968
36.182,34.931
36.037,34.901
35.893,34.878
35.751,34.861
35.61,34.849
35.473,34.843
35.34,34.841
35.212,34.843
35.09,34.847
34.975,34.854
34.869,34.862
34.771,34.872
34.682,34.883
34.601,34.894
34.531,34.905
34.47,34.914
34.42,34.923
34.38,34.929
34.352,34.932
34.335,34.93
34.328,34.925
34.331,34.916
34.341,34.904
34.356,34.89
34.375,34.874
34.397,34.856
34.42,34.835
34.443,34.811
34.465,34.784
34.487,34.753
34.508,34.718
34.53,34.68
34.55,34.64
34.57,34.598
34.589,34.555
34.606,34.511
34.619,34.466
34.628,34.419
34.632,34.369
34.63,34.317
34.622,34.263
34.609,34.208
34.592,34.152
34.57,34.095
34.544,34.038
34.516,33.982
34.485,33.926
34.451,33.87
34.415,33.813
34.375,33.755
34.332,33.695
34.285,33.634
34.235,33.572
34.18,33.511
34.121,33.452
34.06,33.395
33.997,33.341
33.934,33.291
33.869,33.243
33.803,33.199
33.738,33.157
33.673,33.117
33.607,33.079
33.54,33.043
33.473,33.008
33.405,32.974
33.336,32.94
33.267,32.907
33.197,32.872
33.127,32.837
33.057,32.8
32.988,32.763
32.919,32.724
32.85,32.685
32.783,32.646
32.719,32.607
32.656,32.57
32.596,32.535
32.536,32.502
32.477,32.471
32.419,32.444
32.362,32.421
32.307,32.404
32.253,32.393
32.201,32.392
32.15,32.403
32.102,32.427
32.056,32.468
32.013,32.529
31.976,32.614
31.941,32.728
31.909,32.871
31.883,33.046
31.871,33.254
31.878,33.496
31.914,33.772
31.985,34.083
32.099,34.427
32.262,34.803
32.477,35.208
32.748,35.636
33.072,36.08
33.45,36.532
33.878,36.983
34.349,37.425
34.858,37.848
35.394,38.245
35.949,38.607
36.511,38.926
37.071,39.199
37.62,39.422
38.146,39.592
38.641,39.709
39.096,39.776
39.506,39.795
39.864,39.772
40.168,39.709
40.415,39.614
40.605,39.493
40.741,39.352
40.827,39.195
40.866,39.03
40.863,38.858
40.823,38.684
40.75,38.512
40.651,38.343
40.529,38.181
40.39,38.025
40.237,37.878
40.074,37.738
39.905,37.604
39.731,37.477
39.555,37.354
39.378,37.235
39.2,37.119
39.024,37.006
38.848,36.895
38.675,36.785
38.503,36.677
38.334,36.569
38.167,36.463
38.002,36.357
37.84,36.252
37.679,36.147
37.519,36.042
37.361,35.937
37.202,35.832
37.042,35.729
36.881,35.629
36.718,35.531
36.554,35.438
36.389,35.348
36.222,35.263
36.056,35.183
35.89,35.109
35.726,35.04
35.566,34.975
35.41,34.916
35.261,34.862
35.12,34.814
34.989,34.774
34.872,34.741
34.774,34.715
34.696,34.696
34.637,34.684
34.595,34.677
34.567,34.674
34.549,34.675
34.538,34.68
34.53,34.689
34.525,34.7
34.521,34.715
34.517,34.733
34.514,34.753
34.513,34.776
34.512,34.799
34.513,34.822
34.515,34.842
34.519,34.86
34.524,34.873
34.532,34.882
34.542,34.887
34.554,34.889
34.567,34.887
34.583,34.882
34.601,34.874
34.619,34.862
34.638,34.846
34.656,34.826
34.672,34.8
34.684,34.769
34.692,34.73
34.695,34.687
34.692,34.64
34.682,34.589
34.667,34.537
34.646,34.484
34.619,34.429
34.587,34.373
34.551,34.317
34.511,34.262
34.468,34.206
34.422,34.15
34.372,34.094
34.32,34.038
34.264,33.982
34.205,33.928
34.143,33.875
34.078,33.824
34.012,33.773
33.945,33.723
33.879,33.674
33.813,33.627
33.747,33.581
33.682,33.536
33.618,33.492
33.554,33.45
33.489,33.41
33.424,33.371
33.359,33.333
33.293,33.296
33.227,33.257
33.161,33.216
33.095,33.175
33.03,33.132
32.966,33.087
32.903,33.042
32.84,32.997
32.779,32.953
32.718,32.911
32.656,32.871
32.595,32.833
32.533,32.798
32.472,32.765
32.412,32.731
32.352,32.698
32.293,32.667
32.233,32.637
32.175,32.612
32.119,32.59
32.065,32.572
32.016,32.561
31.972,32.555
31.938,32.556
31.916,32.565
31.909,32.582
31.921,32.609
31.956,32.65
32.018,32.706
32.112,32.781
32.24,32.878
32.408,33
32.618,33.149
32.871,33.328
33.169,33.538
33.511,33.78
33.896,34.056
34.321,34.365
34.783,34.707
35.276,35.081
35.792,35.483
36.324,35.908
36.864,36.351
37.402,36.801
37.931,37.249
38.439,37.686
38.92,38.102
39.365,38.488
39.767,38.838
40.122,39.144
40.425,39.402
40.675,39.61
40.869,39.766
41.008,39.872
41.096,39.93
41.135,39.944
41.13,39.917
41.086,39.854
41.008,39.76
40.904,39.642
40.779,39.504
40.636,39.352
40.482,39.191
40.319,39.023
40.151,38.852
39.979,38.68
39.807,38.51
39.635,38.343
39.462,38.18
39.291,38.024
39.12,37.873
38.948,37.729
38.777,37.591
38.606,37.458
38.435,37.328
38.265,37.202
38.095,37.081
37.924,36.965
37.753,36.854
37.583,36.748
37.412,36.646
37.242,36.547
37.072,36.451
36.903,36.356
36.734,36.26
36.566,36.163
36.399,36.065
36.232,35.966
36.066,35.867
35.902,35.768
35.741,35.67
35.584,35.574
35.432,35.48
35.285,35.389
35.145,35.3
35.013,35.216
34.891,35.136
34.779,35.061
34.68,34.994
34.592,34.934
34.516,34.883
34.452,34.842
34.399,34.811
34.356,34.788
34.324,34.775
34.301,34.771
34.288,34.775
34.283,34.785
34.285,34.802
34.293,34.822
34.307,34.846
34.324,34.87
34.345,34.896
34.369,34.922
34.396,34.945
34.423,34.965
34.451,34.984
34.48,34.999
34.509,35.012
34.537,35.022
34.565,35.027
34.59,35.029
34.612,35.025
34.629,35.016
34.642,35.001
34.651,34.98
34.654,34.953
34.653,34.921
34.645,34.886
34.633,34.848
34.615,34.809
34.592,34.77
34.564,34.731
34.532,34.69
34.495,34.648
34.455,34.605
34.409,34.56
34.359,34.513
34.305,34.465
34.248,34.417
34.189,34.368
34.127,34.32
34.064,34.272
34.001,34.223
33.937,34.172
33.873,34.119
33.81,34.063
33.747,34.004
33.685,33.943
33.623,33.881
33.561,33.818
33.499,33.756
33.438,33.697
33.377,33.64
33.319,33.586
33.261,33.534
33.204,33.483
33.148,33.434
33.092,33.386
33.036,33.341
32.98,33.297
32.923,33.256
32.863,33.215
32.802,33.176
32.738,33.136
32.673,33.097
32.607,33.056
32.539,33.014
32.471,32.97
32.403,32.925
32.336,32.881
32.27,32.838
32.207,32.796
32.147,32.756
32.092,32.717
32.043,32.68
32.003,32.645
31.972,32.613
31.953,32.587
31.949,32.567
31.962,32.557
31.997,32.556
32.059,32.568
32.153,32.593
32.285,32.636
32.457,32.697
32.675,32.78
32.94,32.888
33.254,33.024
33.614,33.19
34.02,33.389
34.467,33.622
34.948,33.891
35.458,34.196
35.988,34.537
36.53,34.911
37.076,35.316
37.617,35.747
38.144,36.197
38.649,36.657
39.123,37.118
39.561,37.57
39.956,38.004
40.303,38.411
40.6,38.783
40.845,39.113
41.036,39.397
41.175,39.631
41.263,39.815
41.303,39.947
41.298,40.031
41.252,40.068
41.172,40.063
41.063,40.02
40.93,39.945
40.78,39.843
40.616,39.719
40.444,39.577
40.268,39.423
40.091,39.26
39.917,39.093
39.746,38.926
39.579,38.761
39.417,38.602
39.259,38.45
39.105,38.306
38.954,38.17
38.805,38.04
38.659,37.917
38.522,37.799
38.395,37.686
38.278,37.576
38.166,37.469
38.057,37.365
37.946,37.263
37.832,37.162
37.711,37.06
37.583,36.956
37.444,36.851
37.296,36.744
37.138,36.635
36.973,36.525
36.801,36.414
36.624,36.304
36.445,36.197
36.265,36.093
36.087,35.992
35.912,35.895
35.743,35.801
35.583,35.712
35.433,35.627
35.295,35.545
35.17,35.467
35.059,35.394
34.963,35.327
34.882,35.267
34.816,35.214
34.763,35.166
34.722,35.124
34.693,35.087
34.673,35.055
34.661,35.028
34.656,35.005
34.656,34.987
34.66,34.972
34.669,34.96
34.682,34.952
34.698,34.947
34.718,34.945
34.741,34.946
34.766,34.948
34.792,34.95
34.818,34.953
34.842,34.957
34.862,34.962
34.878,34.968
34.89,34.974
34.896,34.98
34.898,34.986
34.895,34.992
34.889,34.997
34.88,35
34.869,35.001
34.854,34.998
34.837,34.992
34.816,34.982
34.79,34.968
34.76,34.947
34.724,34.919
34.683,34.885
34.637,34.845
34.587,34.799
34.532,34.747
34.474,34.691
34.414,34.63
34.351,34.567
34.284,34.503
34.216,34.438
34.145,34.374
34.073,34.31
34.002,34.246
33.93,34.182
33.858,34.12
33.787,34.06
33.718,34.003
33.649,33.949
33.582,33.899
33.515,33.853
33.448,33.81
33.382,33.77
33.315,33.73
33.248,33.69
33.18,33.647
33.113,33.602
33.046,33.554
32.978,33.505
32.911,33.454
32.842,33.403
32.774,33.353
32.707,33.304
32.64,33.255
32.574,33.206
32.509,33.157
32.445,33.108
32.382,33.059
32.321,33.011
32.26,32.965
32.203,32.922
32.15,32.882
32.103,32.844
32.063,32.807
32.033,32.772
32.016,32.738
32.014,32.704
32.033,32.67
32.076,32.636
32.147,32.605
32.252,32.577
32.395,32.552
32.58,32.531
32.811,32.517
33.089,32.512
33.417,32.518
33.792,32.539
34.211,32.579
34.669,32.641
35.16,32.728
35.677,32.844
36.21,32.989
36.751,33.165
37.289,33.376
37.815,33.624
38.32,33.911
38.795,34.237
39.233,34.602
39.627,35.003
39.974,35.437
40.269,35.897
40.514,36.374
40.706,36.859
40.848,37.344
40.942,37.817
40.99,38.269
40.997,38.69
40.966,39.071
40.903,39.405
40.812,39.687
40.697,39.916
40.564,40.089
40.417,40.208
40.26,40.276
40.097,40.295
39.931,40.271
39.764,40.209
39.598,40.113
39.432,39.99
39.268,39.846
39.106,39.688
38.945,39.52
38.785,39.348
38.625,39.175
38.466,39.005
38.308,38.84
38.151,38.681
37.995,38.53
37.839,38.385
37.685,38.248
37.531,38.117
37.379,37.992
37.228,37.873
37.078,37.759
36.928,37.65
36.779,37.544
36.629,37.44
36.479,37.339
36.328,37.238
36.175,37.14
36.023,37.042
35.872,36.944
35.724,36.846
35.579,36.746
35.438,36.645
35.303,36.543
35.175,36.44
35.054,36.337
34.941,36.233
34.837,36.129
34.741,36.024
34.655,35.921
34.58,35.82
34.516,35.722
34.463,35.63
34.422,35.543
34.393,35.463
34.376,35.391
34.369,35.328
34.37,35.274
34.378,35.23
34.392,35.193
34.41,35.164
34.43,35.141
34.451,35.124
34.474,35.111
34.498,35.1
34.522,35.09
34.547,35.082
34.571,35.076
34.595,35.071
34.617,35.066
34.637,35.061
34.654,35.057
34.666,35.054
34.672,35.051
34.673,35.05
34.668,35.05
34.658,35.051
34.643,35.053
34.623,35.054
34.6,35.054
34.574,35.053
34.546,35.05
34.515,35.044
34.483,35.035
34.448,35.023
34.409,35.006
34.366,34.987
34.317,34.964
34.261,34.937
34.2,34.906
34.135,34.87
34.065,34.83
33.993,34.787
33.92,34.74
33.847,34.69
33.774,34.637
33.702,34.58
33.631,34.521
33.561,34.459
33.493,34.395
33.425,34.329
33.357,34.262
33.29,34.194
33.222,34.126
33.155,34.057
33.089,33.99
33.023,33.925
32.957,33.863
32.892,33.805
32.828,33.75
32.764,33.699
32.7,33.65
32.637,33.603
32.575,33.557
32.515,33.511
32.456,33.465
32.398,33.42
32.343,33.375
32.289,33.327
32.237,33.279
32.186,33.229
32.137,33.179
32.088,33.129
32.042,33.08
31.999,33.034
31.962,32.99
31.933,32.947
31.918,32.906
31.92,32.865
31.943,32.826
31.993,32.786
32.075,32.747
32.193,32.708
32.352,32.669
32.556,32.633
32.808,32.6
