Trial 3:3back,Trial 5:3back
41.273,32.881
42.11,32.834
42.897,32.792
43.618,32.752
44.264,32.714
44.825,32.678
45.296,32.644
45.674,32.612
45.961,32.583
46.157,32.556
46.267,32.533
46.297,32.514
46.255,32.496
46.149,32.482
45.987,32.469
45.778,32.459
45.533,32.452
45.259,32.446
44.966,32.443
44.66,32.44
44.347,32.438
44.033,32.434
43.72,32.429
43.412,32.421
43.109,32.412
42.811,32.401
42.52,32.388
42.234,32.375
41.952,32.361
41.674,32.347
41.399,32.333
41.127,32.319
40.856,32.307
40.585,32.298
40.315,32.293
40.044,32.295
39.774,32.307
39.504,32.332
39.235,32.375
38.968,32.441
38.704,32.537
38.442,32.668
38.184,32.841
37.93,33.062
37.68,33.337
37.433,33.669
37.19,34.058
36.953,34.504
36.721,35.004
36.496,35.551
36.278,36.138
36.068,36.754
35.865,37.387
35.67,38.024
35.485,38.653
35.31,39.26
35.147,39.834
34.996,40.364
34.86,40.839
34.74,41.254
34.635,41.603
34.547,41.883
34.476,42.095
34.42,42.24
34.382,42.319
34.36,42.338
34.354,42.302
34.365,42.215
34.392,42.085
34.433,41.918
34.488,41.72
34.555,41.497
34.633,41.257
34.72,41.003
34.817,40.742
34.921,40.477
35.032,40.211
35.148,39.947
35.269,39.686
35.392,39.428
35.516,39.173
35.64,38.922
35.762,38.674
35.879,38.431
35.992,38.19
36.098,37.953
36.195,37.72
36.281,37.491
36.354,37.265
36.414,37.042
36.459,36.82
36.489,36.6
36.503,36.381
36.503,36.163
36.49,35.946
36.464,35.731
36.428,35.517
36.382,35.304
36.328,35.093
36.265,34.884
36.195,34.676
36.118,34.47
36.032,34.267
35.94,34.066
35.841,33.869
35.737,33.678
35.629,33.493
35.516,33.316
35.4,33.148
35.281,32.991
35.16,32.846
35.036,32.713
34.911,32.596
34.786,32.494
34.661,32.41
34.537,32.344
34.416,32.298
34.296,32.272
34.18,32.268
34.066,32.285
33.957,32.323
33.851,32.381
33.75,32.457
33.653,32.549
33.558,32.658
33.465,32.781
33.374,32.916
33.285,33.061
33.197,33.214
33.11,33.371
33.024,33.532
32.939,33.694
32.855,33.857
32.772,34.017
32.69,34.174
32.609,34.325
32.53,34.469
32.453,34.605
32.379,34.733
32.307,34.85
32.239,34.958
32.175,35.054
32.115,35.14
32.057,35.214
32.003,35.277
31.952,35.329
31.903,35.369
31.858,35.399
31.815,35.418
31.774,35.425
31.736,35.421
31.7,35.408
31.666,35.385
31.634,35.354
31.605,35.317
31.578,35.275
31.554,35.228
31.534,35.177
31.517,35.122
31.503,35.061
31.491,34.993
31.481,34.916
31.472,34.832
31.463,34.746
31.454,34.659
31.445,34.576
31.434,34.497
31.423,34.426
31.412,34.365
31.4,34.312
31.389,34.268
31.379,34.233
31.369,34.204
31.36,34.181
31.351,34.162
31.344,34.144
31.337,34.128
31.332,34.111
31.33,34.092
31.332,34.069
31.337,34.041
31.347,34.007
31.36,33.967
31.377,33.919
31.398,33.866
31.422,33.806
31.447,33.742
31.473,33.674
31.499,33.603
31.524,33.529
31.546,33.452
31.567,33.373
31.585,33.294
31.6,33.217
31.612,33.14
31.622,33.067
31.63,32.997
31.636,32.929
31.642,32.865
31.647,32.802
31.653,32.743
31.659,32.685
31.666,32.628
31.674,32.574
31.682,32.52
31.69,32.468
31.698,32.418
31.706,32.369
31.714,32.322
31.72,32.278
31.726,32.238
31.731,32.205
31.733,32.182
31.733,32.171
31.729,32.179
31.721,32.208
31.707,32.267
31.689,32.361
31.668,32.498
31.644,32.685
31.619,32.928
31.593,33.232
31.567,33.597
31.543,34.024
31.522,34.512
31.506,35.055
31.496,35.646
31.495,36.276
31.505,36.934
31.531,37.607
31.576,38.28
31.646,38.94
31.746,39.572
31.883,40.165
32.063,40.707
32.293,41.188
32.58,41.604
32.931,41.948
33.349,42.22
33.84,42.42
34.403,42.549
35.037,42.612
35.737,42.614
36.497,42.561
37.307,42.458
38.153,42.314
39.022,42.135
39.898,41.929
40.763,41.703
41.603,41.462
42.402,41.213
43.146,40.96
43.824,40.707
44.426,40.456
44.946,40.209
45.378,39.969
45.721,39.735
45.975,39.508
46.142,39.287
46.226,39.072
46.234,38.863
46.172,38.659
46.05,38.46
45.876,38.268
45.659,38.08
45.407,37.896
45.129,37.717
44.833,37.54
44.523,37.365
44.206,37.192
43.884,37.019
43.56,36.846
43.237,36.671
42.916,36.494
42.597,36.315
42.282,36.134
41.971,35.953
41.663,35.772
41.36,35.591
41.06,35.412
40.764,35.236
40.47,35.062
40.178,34.893
39.888,34.73
39.601,34.572
39.316,34.421
39.034,34.279
38.757,34.146
38.484,34.024
38.217,33.914
37.954,33.817
37.698,33.733
37.447,33.664
37.202,33.608
36.964,33.565
36.733,33.535
36.511,33.519
36.296,33.515
36.09,33.524
35.894,33.546
35.707,33.58
35.529,33.626
35.362,33.683
35.204,33.751
35.054,33.827
34.913,33.913
34.778,34.007
34.65,34.107
34.527,34.214
34.411,34.326
34.301,34.442
34.2,34.562
34.109,34.683
34.029,34.806
33.964,34.928
33.915,35.048
33.884,35.164
33.873,35.274
33.884,35.377
33.916,35.47
33.97,35.554
34.045,35.627
34.14,35.689
34.252,35.738
34.379,35.774
34.517,35.796
34.664,35.806
34.816,35.803
34.969,35.789
35.119,35.764
35.262,35.729
35.396,35.686
35.518,35.635
35.626,35.578
35.718,35.516
35.795,35.45
35.855,35.381
35.899,35.309
35.927,35.234
35.939,35.157
35.937,35.078
35.921,34.997
35.892,34.913
35.851,34.827
35.799,34.738
35.736,34.647
35.664,34.554
35.584,34.458
35.496,34.361
35.4,34.262
35.299,34.163
35.192,34.063
35.08,33.962
34.964,33.861
34.845,33.758
34.723,33.654
34.599,33.549
34.475,33.444
34.349,33.339
34.221,33.235
34.094,33.133
33.965,33.034
33.837,32.938
33.707,32.845
33.578,32.755
33.448,32.668
33.32,32.586
33.193,32.507
33.068,32.433
32.945,32.363
32.826,32.296
32.711,32.233
32.603,32.173
32.499,32.115
32.401,32.06
32.307,32.007
32.216,31.956
32.126,31.906
32.037,31.859
31.947,31.813
31.857,31.768
31.765,31.724
31.673,31.68
31.579,31.637
31.485,31.594
31.392,31.553
31.302,31.514
31.213,31.479
31.128,31.448
31.047,31.424
30.968,31.411
30.891,31.412
30.817,31.433
30.747,31.481
30.681,31.563
30.619,31.685
30.561,31.855
30.509,32.079
30.462,32.361
30.42,32.706
30.384,33.114
30.353,33.584
30.327,34.114
30.305,34.695
30.288,35.319
30.273,35.975
30.262,36.651
30.253,37.333
30.245,38.007
30.239,38.658
30.233,39.274
30.228,39.844
30.223,40.357
30.218,40.809
30.213,41.193
30.208,41.507
30.203,41.752
30.199,41.929
30.195,42.04
30.191,42.091
30.187,42.086
30.183,42.032
30.178,41.937
30.174,41.806
30.17,41.646
30.167,41.465
30.164,41.267
30.164,41.057
30.165,40.841
30.167,40.621
30.172,40.398
30.178,40.176
30.185,39.953
30.192,39.731
30.201,39.51
30.21,39.288
30.22,39.065
30.23,38.842
30.241,38.617
30.253,38.392
30.266,38.167
30.28,37.944
30.294,37.725
30.308,37.511
30.321,37.305
30.334,37.106
30.346,36.916
30.358,36.734
30.368,36.559
30.377,36.39
30.385,36.226
30.392,36.065
30.398,35.906
30.402,35.749
30.406,35.592
30.408,35.436
30.409,35.279
30.409,35.121
30.41,34.963
30.411,34.804
30.412,34.645
30.415,34.488
30.419,34.334
30.424,34.184
30.431,34.043
30.438,33.912
30.447,33.792
30.456,33.687
30.465,33.596
30.474,33.52
30.482,33.46
30.49,33.416
30.499,33.387
30.507,33.376
30.516,33.382
30.525,33.403
30.534,33.441
30.544,33.493
30.556,33.56
30.571,33.641
30.592,33.734
30.621,33.839
30.662,33.955
30.722,34.08
30.806,34.213
30.922,34.352
31.078,34.495
31.281,34.641
31.539,34.787
31.858,34.933
32.24,35.077
32.689,35.218
33.203,35.353
33.78,35.481
34.414,35.6
35.097,35.709
35.82,35.808
36.568,35.894
37.329,35.966
38.085,36.025
38.821,36.069
39.522,36.1
40.173,36.117
40.764,36.122
41.284,36.117
41.725,36.102
42.085,36.078
42.362,36.047
42.556,36.009
42.672,35.965
42.714,35.916
42.691,35.862
42.608,35.803
42.476,35.74
42.302,35.674
42.095,35.604
41.863,35.531
41.613,35.455
41.353,35.376
41.087,35.295
40.821,35.211
40.559,35.125
40.302,35.037
40.054,34.948
39.814,34.859
39.584,34.77
39.363,34.683
39.15,34.599
38.945,34.519
38.748,34.444
38.556,34.374
38.371,34.31
38.19,34.252
38.012,34.201
37.838,34.156
37.665,34.117
37.494,34.084
37.323,34.056
37.153,34.033
36.984,34.014
36.815,33.999
36.648,33.99
36.482,33.986
36.318,33.989
36.157,33.999
36,34.014
35.846,34.033
35.697,34.053
35.553,34.074
35.416,34.094
35.285,34.112
35.164,34.128
35.051,34.139
34.948,34.144
34.857,34.143
34.776,34.134
34.706,34.119
34.649,34.099
34.603,34.072
34.571,34.041
34.551,34.008
34.545,33.973
34.554,33.939
34.578,33.909
34.617,33.886
34.669,33.874
34.733,33.878
34.81,33.904
34.897,33.958
34.996,34.046
35.102,34.173
35.216,34.346
35.335,34.568
35.457,34.841
35.579,35.167
35.7,35.544
35.818,35.967
35.93,36.431
36.035,36.928
36.131,37.447
36.218,37.978
36.293,38.508
36.355,39.028
36.405,39.525
36.442,39.992
36.466,40.42
36.478,40.803
36.479,41.135
36.468,41.414
36.446,41.639
36.415,41.81
36.373,41.929
36.324,42
36.267,42.026
36.204,42.013
36.135,41.964
36.062,41.886
35.984,41.782
35.903,41.658
35.82,41.52
35.735,41.377
35.648,41.235
35.561,41.094
35.473,40.953
35.384,40.81
35.295,40.663
35.204,40.508
35.112,40.345
35.019,40.172
34.926,39.991
34.833,39.8
34.74,39.6
34.647,39.395
34.555,39.184
34.464,38.971
34.374,38.758
34.286,38.546
34.199,38.339
34.114,38.137
34.031,37.943
33.949,37.757
33.868,37.58
33.788,37.412
33.708,37.254
33.627,37.104
33.546,36.962
33.462,36.824
33.377,36.692
33.289,36.563
33.201,36.437
33.112,36.313
33.023,36.191
32.935,36.07
32.849,35.951
32.765,35.834
32.683,35.721
32.604,35.612
32.528,35.509
32.455,35.413
32.385,35.324
32.318,35.244
32.254,35.174
32.192,35.116
32.133,35.07
32.076,35.038
32.02,35.02
31.966,35.015
31.913,35.025
31.862,35.051
31.81,35.091
31.76,35.147
31.71,35.216
31.661,35.299
31.613,35.394
31.566,35.498
31.52,35.611
31.476,35.729
31.434,35.852
31.394,35.976
31.356,36.1
31.321,36.221
31.289,36.337
31.261,36.445
31.238,36.544
31.218,36.632
31.204,36.706
31.193,36.766
31.187,36.81
31.186,36.838
31.187,36.85
31.192,36.844
31.201,36.823
31.211,36.787
31.223,36.737
31.235,36.674
31.246,36.599
31.254,36.514
31.26,36.419
31.262,36.318
31.26,36.211
31.253,36.099
31.242,35.985
31.227,35.869
31.209,35.752
31.189,35.634
31.168,35.516
31.147,35.398
31.126,35.281
31.108,35.166
31.093,35.051
31.081,34.937
31.072,34.823
31.065,34.71
31.059,34.596
31.053,34.483
31.046,34.372
31.039,34.262
31.03,34.154
31.02,34.047
31.008,33.941
30.996,33.835
30.983,33.73
30.97,33.626
30.958,33.523
30.946,33.424
30.935,33.328
30.924,33.236
30.913,33.149
30.904,33.066
30.895,32.987
30.885,32.913
30.876,32.845
30.866,32.781
30.855,32.723
30.844,32.669
30.831,32.62
30.819,32.576
30.807,32.536
30.794,32.499
30.779,32.467
30.763,32.438
30.746,32.413
30.732,32.391
30.722,32.373
30.718,32.359
30.723,32.349
30.741,32.343
30.777,32.341
30.834,32.343
30.92,32.348
31.042,32.356
31.209,32.367
31.429,32.379
31.712,32.392
32.065,32.405
32.495,32.418
33.006,32.429
33.598,32.44
34.269,32.45
35.012,32.459
35.817,32.467
36.67,32.473
37.557,32.476
38.459,32.476
39.359,32.474
40.238,32.468
41.081,32.46
41.871,32.448
42.596,32.433
43.245,32.416
43.81,32.396
44.285,32.374
44.67,32.351
44.963,32.329
45.169,32.308
45.293,32.293
45.342,32.288
45.322,32.298
45.245,32.328
45.118,32.386
44.95,32.479
44.75,32.614
44.526,32.797
44.285,33.034
44.032,33.329
43.771,33.687
43.508,34.108
43.243,34.591
42.98,35.131
42.718,35.721
42.458,36.351
42.2,37.009
41.944,37.681
41.689,38.353
41.434,39.01
41.181,39.637
40.929,40.222
40.677,40.752
40.428,41.221
40.179,41.62
39.931,41.946
39.684,42.198
39.436,42.377
39.189,42.486
38.943,42.529
38.699,42.515
38.458,42.45
38.221,42.344
37.989,42.204
37.764,42.04
37.544,41.859
37.332,41.67
37.128,41.477
36.934,41.286
36.751,41.102
36.58,40.926
36.421,40.761
36.274,40.607
36.14,40.464
36.018,40.331
35.908,40.208
35.81,40.092
35.723,39.984
35.647,39.881
35.581,39.783
35.524,39.686
35.476,39.591
35.435,39.497
35.401,39.402
35.374,39.306
35.353,39.209
35.339,39.112
35.332,39.013
35.334,38.913
35.344,38.812
35.365,38.712
35.395,38.614
35.436,38.516
35.486,38.419
35.546,38.322
35.614,38.225
35.689,38.126
35.77,38.027
35.856,37.926
35.945,37.824
36.036,37.72
36.127,37.614
36.216,37.508
36.302,37.402
36.381,37.296
36.453,37.191
36.515,37.089
36.565,36.992
36.604,36.899
36.63,36.814
36.643,36.736
36.644,36.669
36.634,36.612
36.612,36.567
36.579,36.534
36.537,36.512
36.485,36.501
36.425,36.5
36.357,36.509
36.281,36.529
36.199,36.559
36.112,36.597
36.02,36.644
35.923,36.697
35.823,36.755
35.719,36.815
35.613,36.877
35.504,36.939
35.396,37
35.287,37.057
35.179,37.109
35.072,37.153
34.966,37.189
34.863,37.216
34.761,37.231
34.662,37.236
34.566,37.226
34.472,37.203
34.379,37.165
34.286,37.11
34.193,37.041
34.098,36.957
34.002,36.859
33.905,36.748
33.808,36.623
33.71,36.487
33.613,36.339
33.517,36.181
33.424,36.014
33.332,35.838
33.241,35.655
33.152,35.466
33.063,35.27
32.975,35.07
32.888,34.866
32.801,34.658
32.716,34.447
32.631,34.232
32.548,34.015
32.468,33.795
32.391,33.573
32.317,33.349
32.247,33.124
32.18,32.896
32.118,32.669
32.059,32.443
32.003,32.219
31.952,31.997
31.904,31.779
31.858,31.565
31.816,31.355
31.777,31.15
31.741,30.95
31.707,30.756
31.676,30.569
31.646,30.39
31.617,30.22
31.589,30.059
31.562,29.906
31.534,29.762
31.505,29.627
31.475,29.499
31.445,29.378
31.414,29.265
31.383,29.16
31.351,29.064
31.319,28.977
31.289,28.9
31.259,28.832
31.23,28.775
31.201,28.728
31.173,28.693
31.145,28.67
31.118,28.659
31.092,28.66
31.067,28.674
31.044,28.701
31.023,28.741
31.005,28.793
30.99,28.859
30.979,28.939
30.97,29.033
30.965,29.142
30.964,29.267
30.966,29.407
30.972,29.56
30.98,29.727
30.99,29.905
31.002,30.094
31.014,30.295
31.026,30.505
31.037,30.723
31.047,30.948
31.057,31.177
31.065,31.408
31.072,31.638
31.077,31.864
31.08,32.082
31.082,32.289
31.082,32.483
31.081,32.659
31.079,32.818
31.076,32.957
31.073,33.075
31.071,33.173
31.069,33.253
31.068,33.316
31.068,33.364
31.07,33.401
31.074,33.431
31.078,33.46
31.083,33.493
31.088,33.536
31.092,33.597
31.095,33.683
31.097,33.8
31.098,33.952
31.1,34.142
31.104,34.374
31.109,34.648
31.116,34.965
31.128,35.324
31.146,35.721
31.172,36.151
31.21,36.607
31.265,37.083
31.344,37.568
31.453,38.054
31.602,38.532
31.801,38.993
32.057,39.428
32.38,39.831
32.776,40.195
33.25,40.517
33.803,40.793
34.435,41.022
35.137,41.203
35.903,41.338
36.719,41.427
37.573,41.474
38.446,41.483
39.322,41.456
40.184,41.398
41.013,41.313
41.796,41.205
42.517,41.077
43.166,40.933
43.733,40.775
44.215,40.604
44.606,40.423
44.909,40.233
45.124,40.035
45.256,39.83
45.31,39.62
45.293,39.404
45.213,39.185
45.077,38.961
44.894,38.734
44.673,38.505
44.42,38.275
44.144,38.043
43.852,37.811
43.549,37.578
43.24,37.346
42.93,37.113
42.622,36.88
42.318,36.647
42.019,36.415
41.724,36.183
41.436,35.952
41.153,35.722
40.876,35.492
40.604,35.264
40.338,35.038
40.078,34.816
39.823,34.601
39.574,34.394
39.329,34.197
39.088,34.011
38.853,33.838
38.623,33.679
38.398,33.535
38.18,33.409
37.968,33.302
37.763,33.216
37.566,33.151
37.375,33.108
37.191,33.087
37.013,33.088
36.843,33.111
36.68,33.154
36.524,33.217
36.375,33.3
36.23,33.399
36.091,33.513
35.958,33.638
35.831,33.773
35.708,33.916
35.591,34.064
35.479,34.214
35.374,34.363
35.277,34.51
35.188,34.651
35.111,34.785
35.046,34.911
34.993,35.027
34.952,35.133
34.925,35.228
34.911,35.31
34.91,35.379
34.922,35.433
34.948,35.472
34.987,35.496
35.04,35.507
35.105,35.503
35.182,35.487
35.268,35.459
35.363,35.421
35.464,35.372
35.57,35.315
35.679,35.249
35.788,35.175
35.896,35.097
36.002,35.013
36.104,34.926
36.2,34.837
36.287,34.746
36.365,34.654
36.433,34.561
36.488,34.468
36.53,34.375
36.558,34.283
36.572,34.192
36.573,34.102
36.56,34.013
36.535,33.925
36.499,33.836
36.453,33.748
36.398,33.659
36.335,33.571
36.266,33.483
36.193,33.397
36.117,33.311
36.039,33.227
35.959,33.147
35.88,33.07
35.8,32.997
35.721,32.929
35.641,32.867
35.56,32.812
35.48,32.764
35.4,32.721
35.318,32.685
35.236,32.655
35.152,32.632
35.067,32.616
34.979,32.606
34.888,32.601
34.796,32.602
34.702,32.608
34.608,32.616
34.512,32.626
34.416,32.636
34.321,32.647
34.225,32.656
34.131,32.665
34.038,32.672
33.947,32.676
33.857,32.678
33.768,32.676
33.682,32.67
33.599,32.66
33.521,32.646
33.45,32.628
33.386,32.608
33.331,32.587
33.283,32.567
33.241,32.548
33.203,32.531
33.169,32.515
33.135,32.501
33.099,32.488
33.059,32.476
33.014,32.464
32.963,32.452
32.906,32.438
32.843,32.421
32.774,32.403
32.701,32.381
32.627,32.356
32.551,32.328
32.476,32.298
32.403,32.266
32.333,32.235
32.267,32.206
32.205,32.183
32.148,32.169
32.096,32.168
32.048,32.186
32.004,32.229
31.965,32.302
31.93,32.412
31.9,32.565
31.874,32.763
31.852,33.01
31.832,33.308
31.817,33.656
31.804,34.053
31.795,34.494
31.79,34.973
31.786,35.482
31.785,36.011
31.785,36.55
31.786,37.089
31.789,37.616
31.793,38.122
31.799,38.598
31.805,39.037
31.813,39.43
31.82,39.775
31.826,40.067
31.832,40.306
31.835,40.492
31.836,40.626
31.835,40.711
31.831,40.751
31.826,40.749
31.819,40.711
31.811,40.642
31.801,40.547
31.792,40.43
31.781,40.295
31.77,40.147
31.758,39.989
31.745,39.824
31.733,39.654
31.72,39.481
31.708,39.306
31.696,39.129
31.686,38.952
31.677,38.774
31.669,38.596
31.663,38.419
31.659,38.244
31.657,38.069
31.655,37.896
31.655,37.726
31.656,37.557
31.658,37.389
31.66,37.223
31.663,37.058
31.665,36.892
31.666,36.727
31.667,36.562
31.667,36.397
31.667,36.231
31.67,36.065
31.674,35.896
31.682,35.726
31.696,35.553
31.719,35.379
31.753,35.205
31.804,35.032
31.878,34.86
31.981,34.69
32.121,34.523
32.303,34.359
32.536,34.199
32.826,34.044
33.178,33.896
33.595,33.754
34.08,33.622
34.631,33.499
35.246,33.388
35.918,33.289
36.64,33.203
37.399,33.13
38.185,33.071
38.983,33.027
39.779,32.997
40.559,32.981
41.31,32.981
42.019,32.995
42.675,33.025
43.269,33.069
43.794,33.127
44.246,33.199
44.622,33.283
44.922,33.377
45.146,33.48
45.3,33.59
45.385,33.706
45.407,33.825
45.372,33.946
45.286,34.067
45.155,34.188
44.987,34.307
44.787,34.422
44.562,34.533
44.318,34.637
44.06,34.735
43.791,34.824
43.515,34.905
43.235,34.976
42.953,35.038
42.671,35.091
42.392,35.135
42.116,35.169
41.845,35.193
41.578,35.207
41.316,35.214
41.059,35.212
40.806,35.202
40.556,35.185
40.309,35.161
40.065,35.13
39.824,35.093
39.584,35.049
39.348,35
39.113,34.947
38.882,34.891
38.652,34.831
38.424,34.77
38.197,34.707
37.97,34.644
37.742,34.581
37.513,34.517
37.283,34.452
37.051,34.386
36.816,34.32
36.58,34.253
36.342,34.186
36.105,34.118
35.868,34.051
35.635,33.984
35.408,33.916
35.189,33.849
34.98,33.783
34.784,33.718
34.601,33.654
34.433,33.592
34.282,33.532
34.147,33.474
34.031,33.417
33.933,33.363
33.854,33.311
33.794,33.263
33.751,33.219
33.724,33.178
33.713,33.141
33.717,33.107
33.733,33.076
33.762,33.047
33.801,33.021
33.851,32.997
33.91,32.973
33.977,32.95
34.051,32.926
34.132,32.9
34.217,32.874
34.306,32.847
34.399,32.819
34.492,32.793
34.587,32.767
34.683,32.742
34.778,32.717
34.871,32.691
34.962,32.665
35.049,32.64
35.131,32.614
35.208,32.59
35.279,32.567
35.343,32.547
35.399,32.532
35.449,32.525
35.49,32.528
35.522,32.546
35.546,32.584
35.562,32.647
35.57,32.741
35.57,32.872
35.563,33.043
35.548,33.259
35.526,33.522
35.497,33.832
35.461,34.191
35.417,34.594
35.367,35.038
35.31,35.516
35.249,36.02
35.182,36.54
35.112,37.066
35.039,37.589
34.964,38.1
34.885,38.588
34.802,39.046
34.717,39.467
34.63,39.847
34.541,40.18
34.452,40.463
34.362,40.695
34.274,40.875
34.187,41.005
34.102,41.086
34.018,41.124
33.936,41.121
33.857,41.083
33.779,41.015
33.702,40.92
33.628,40.804
33.555,40.672
33.484,40.526
33.414,40.372
33.345,40.21
33.276,40.044
33.208,39.873
33.14,39.701
33.071,39.528
33.001,39.356
32.931,39.185
32.86,39.015
32.79,38.846
32.721,38.68
32.653,38.516
32.585,38.354
32.519,38.195
32.454,38.039
32.39,37.886
32.327,37.736
32.266,37.589
32.206,37.445
32.149,37.303
32.094,37.164
32.041,37.026
31.991,36.89
31.943,36.754
31.897,36.62
31.854,36.486
31.813,36.354
31.773,36.222
31.735,36.091
31.698,35.962
31.663,35.834
31.63,35.71
31.599,35.59
31.57,35.475
31.544,35.368
31.521,35.27
31.501,35.183
31.483,35.106
31.467,35.041
31.452,34.987
31.439,34.946
31.426,34.918
31.413,34.904
31.4,34.902
31.387,34.913
31.374,34.935
31.361,34.967
31.349,35.01
31.337,35.061
31.324,35.119
31.312,35.184
31.302,35.255
31.292,35.33
31.284,35.408
31.277,35.489
31.27,35.57
31.264,35.651
31.259,35.731
31.256,35.808
31.253,35.881
31.252,35.95
31.253,36.013
31.253,36.071
31.255,36.122
31.257,36.167
31.259,36.204
31.26,36.233
31.261,36.255
31.262,36.268
31.262,36.273
31.262,36.27
31.262,36.26
31.262,36.242
31.264,36.216
31.266,36.182
31.269,36.141
31.273,36.094
31.278,36.042
31.283,35.986
31.289,35.926
31.296,35.863
31.302,35.797
31.309,35.729
31.316,35.659
31.325,35.588
31.336,35.519
31.352,35.45
31.374,35.384
31.406,35.319
31.45,35.257
31.51,35.196
31.591,35.139
31.698,35.084
31.836,35.031
32.012,34.979
32.233,34.927
32.505,34.878
32.832,34.829
33.22,34.783
33.672,34.74
34.188,34.7
34.767,34.664
35.404,34.632
36.092,34.604
36.823,34.582
37.586,34.565
38.369,34.555
39.158,34.55
39.94,34.552
40.702,34.56
41.431,34.573
42.114,34.59
42.743,34.611
43.308,34.634
43.805,34.659
44.229,34.687
44.578,34.715
44.851,34.744
45.051,34.773
45.181,34.8
45.245,34.825
45.248,34.846
45.194,34.863
45.092,34.875
44.948,34.881
44.766,34.878
44.555,34.868
44.32,34.849
44.067,34.823
43.8,34.791
43.524,34.754
43.242,34.714
42.957,34.671
42.671,34.629
42.385,34.589
42.101,34.555
41.818,34.531
41.537,34.522
41.257,34.533
40.98,34.569
40.705,34.634
40.432,34.734
40.162,34.873
39.893,35.054
39.626,35.281
39.361,35.552
39.096,35.867
38.833,36.223
38.571,36.614
38.312,37.033
38.057,37.472
37.806,37.922
37.561,38.373
37.322,38.816
37.089,39.24
36.863,39.637
36.644,40.001
36.433,40.326
36.23,40.607
36.036,40.842
35.851,41.03
35.676,41.17
35.512,41.265
35.36,41.316
35.221,41.326
35.096,41.3
34.986,41.242
34.89,41.156
34.808,41.048
34.741,40.92
34.688,40.777
34.649,40.623
34.626,40.462
34.617,40.295
34.624,40.126
34.645,39.958
34.68,39.792
34.729,39.63
34.792,39.473
34.868,39.321
34.957,39.174
35.058,39.033
35.17,38.896
35.29,38.765
35.417,38.638
35.551,38.515
35.689,38.395
35.83,38.279
35.973,38.165
36.115,38.054
36.255,37.947
36.394,37.842
36.53,37.74
36.662,37.64
36.789,37.54
36.909,37.441
37.023,37.342
37.129,37.242
37.227,37.14
37.321,37.035
37.424,36.927
37.547,36.814
37.695,36.697
37.867,36.574
38.055,36.446
38.245,36.314
38.425,36.177
38.58,36.04
38.699,35.903
38.775,35.77
38.803,35.642
38.783,35.522
38.718,35.412
38.613,35.312
38.476,35.224
38.314,35.147
38.134,35.084
37.945,35.034
37.754,34.998
37.567,34.976
37.388,34.967
37.222,34.972
37.07,34.988
36.933,35.016
36.811,35.053
36.703,35.099
36.606,35.153
36.517,35.213
36.434,35.28
36.354,35.352
36.273,35.428
36.19,35.506
36.102,35.587
36.008,35.666
35.907,35.743
35.798,35.817
35.681,35.887
35.557,35.951
35.428,36.011
35.294,36.064
35.158,36.11
35.022,36.149
34.888,36.181
34.758,36.206
34.634,36.225
34.518,36.237
34.409,36.242
34.309,36.239
34.218,36.229
34.134,36.212
34.057,36.187
33.988,36.155
33.924,36.117
33.866,36.072
33.812,36.022
33.762,35.967
33.715,35.907
33.67,35.843
33.628,35.776
33.587,35.705
33.546,35.633
33.505,35.559
33.463,35.484
33.42,35.409
33.378,35.332
33.337,35.255
33.296,35.176
33.257,35.096
33.219,35.016
33.182,34.936
33.148,34.855
33.117,34.774
33.087,34.694
33.06,34.613
33.035,34.532
33.011,34.451
32.987,34.371
32.965,34.293
32.942,34.217
32.921,34.142
32.9,34.068
32.88,33.996
32.861,33.925
32.842,33.855
32.825,33.787
32.809,33.722
32.795,33.659
32.782,33.597
32.77,33.538
32.758,33.481
32.746,33.427
32.733,33.377
32.72,33.332
32.705,33.292
32.69,33.257
32.673,33.226
32.656,33.2
32.639,33.176
32.625,33.156
32.613,33.139
32.606,33.125
32.606,33.114
32.615,33.105
32.637,33.099
32.674,33.094
32.73,33.091
32.812,33.089
32.924,33.087
33.072,33.084
33.262,33.08
33.501,33.074
33.793,33.067
34.143,33.057
34.554,33.045
35.028,33.033
35.564,33.021
36.16,33.012
36.81,33.009
37.505,33.017
38.237,33.039
38.992,33.079
39.758,33.144
40.521,33.238
41.267,33.367
41.982,33.535
42.655,33.746
43.276,34.002
43.834,34.305
44.325,34.652
44.743,35.041
45.085,35.468
45.351,35.925
45.54,36.406
45.656,36.901
45.704,37.402
45.688,37.9
45.616,38.39
45.493,38.863
45.326,39.314
45.122,39.736
44.888,40.124
44.629,40.475
44.35,40.785
44.058,41.052
43.758,41.277
43.451,41.458
43.143,41.596
42.835,41.693
42.527,41.751
42.223,41.77
41.922,41.754
41.624,41.704
41.329,41.624
41.039,41.518
40.751,41.389
40.467,41.241
40.186,41.077
39.908,40.9
39.631,40.715
39.358,40.524
39.087,40.329
38.819,40.135
38.554,39.943
38.292,39.754
38.034,39.571
37.781,39.395
37.531,39.225
37.285,39.063
37.044,38.908
36.809,38.762
36.578,38.623
36.355,38.493
36.138,38.371
35.928,38.256
35.726,38.147
35.532,38.042
35.348,37.942
35.174,37.846
35.012,37.753
34.863,37.662
34.729,37.574
34.611,37.487
34.509,37.4
34.423,37.313
34.354,37.226
34.302,37.137
34.266,37.046
34.249,36.953
34.248,36.857
34.263,36.76
34.294,36.661
34.34,36.562
34.4,36.463
34.471,36.366
34.554,36.27
34.644,36.177
34.738,36.086
34.832,36
34.926,35.919
35.018,35.844
35.112,35.777
35.209,35.719
35.311,35.67
35.418,35.631
35.532,35.601
35.65,35.582
35.774,35.573
35.9,35.575
36.027,35.588
36.151,35.61
36.271,35.642
36.382,35.682
36.482,35.729
36.567,35.781
36.637,35.838
36.69,35.896
36.725,35.955
36.743,36.014
36.745,36.07
36.732,36.122
36.703,36.169
36.66,36.211
36.604,36.246
36.535,36.275
36.456,36.296
36.368,36.308
36.273,36.311
36.172,36.305
36.067,36.287
35.959,36.259
35.85,36.22
35.739,36.169
35.628,36.108
35.517,36.037
35.408,35.955
35.3,35.864
35.192,35.765
35.086,35.657
34.98,35.542
34.875,35.422
34.771,35.297
34.668,35.169
34.566,35.038
34.466,34.907
34.368,34.776
34.272,34.645
34.178,34.516
34.084,34.389
33.99,34.264
33.898,34.144
33.805,34.027
33.713,33.916
33.621,33.809
33.531,33.706
33.442,33.607
33.356,33.512
33.273,33.42
33.193,33.33
33.117,33.245
33.045,33.163
32.976,33.084
32.911,33.011
32.849,32.943
32.788,32.88
32.729,32.823
32.67,32.771
32.613,32.726
32.557,32.685
32.503,32.65
32.45,32.622
32.401,32.599
32.354,32.584
32.312,32.576
32.273,32.575
32.238,32.581
32.206,32.592
32.177,32.608
32.15,32.627
32.126,32.649
32.102,32.672
32.078,32.697
32.054,32.722
32.03,32.748
32.005,32.771
31.979,32.793
31.953,32.811
31.927,32.824
31.901,32.833
31.877,32.838
31.855,32.839
31.833,32.834
31.814,32.826
31.798,32.813
31.785,32.798
31.776,32.781
31.771,32.763
31.768,32.744
31.767,32.726
31.767,32.708
31.769,32.69
31.771,32.67
31.774,32.649
31.777,32.626
31.78,32.603
31.783,32.578
31.786,32.555
31.788,32.533
31.79,32.515
31.791,32.504
31.792,32.505
31.792,32.521
31.791,32.559
31.79,32.624
31.789,32.722
31.788,32.859
31.788,33.04
31.789,33.269
31.789,33.548
31.789,33.879
31.789,34.26
31.789,34.687
31.79,35.156
31.794,35.658
31.803,36.184
31.819,36.722
31.845,37.261
31.885,37.79
31.944,38.297
32.027,38.773
32.141,39.209
32.292,39.599
32.485,39.937
32.729,40.221
33.028,40.449
33.388,40.622
33.813,40.741
34.306,40.812
34.866,40.836
35.49,40.821
36.174,40.77
36.908,40.688
37.681,40.58
38.482,40.449
39.297,40.301
40.111,40.14
40.909,39.969
41.677,39.792
42.402,39.611
43.071,39.428
43.675,39.243
44.205,39.058
44.656,38.873
45.026,38.688
45.313,38.503
45.519,38.317
45.646,38.13
45.699,37.942
45.684,37.753
45.608,37.564
45.477,37.374
45.301,37.184
45.088,36.995
44.845,36.806
44.581,36.617
44.301,36.43
44.012,36.246
43.718,36.065
43.422,35.888
43.127,35.716
42.835,35.551
42.546,35.391
42.261,35.237
41.98,35.089
41.704,34.945
41.431,34.804
41.163,34.666
40.899,34.531
40.639,34.396
40.383,34.262
40.131,34.129
39.883,33.997
39.638,33.866
39.396,33.738
39.157,33.612
38.922,33.49
38.689,33.373
38.459,33.263
38.232,33.161
38.008,33.067
37.786,32.984
37.568,32.912
37.352,32.853
37.14,32.808
36.931,32.777
36.729,32.762
36.532,32.763
36.342,32.78
36.16,32.813
35.986,32.861
35.821,32.923
35.665,32.999
35.519,33.087
35.383,33.186
35.259,33.294
35.147,33.409
35.049,33.53
34.964,33.654
34.893,33.78
34.836,33.905
34.794,34.028
34.767,34.147
34.755,34.26
34.758,34.367
34.774,34.467
34.803,34.559
34.844,34.641
34.898,34.713
34.962,34.776
35.038,34.83
35.122,34.876
35.215,34.912
35.316,34.94
35.421,34.959
35.53,34.968
35.642,34.97
35.755,34.964
35.867,34.95
35.976,34.931
36.082,34.905
36.181,34.874
36.273,34.839
36.358,34.799
36.434,34.757
36.501,34.714
36.56,34.671
36.61,34.627
36.649,34.583
36.677,34.538
36.694,34.494
36.699,34.45
36.693,34.408
36.675,34.37
36.647,34.336
36.608,34.306
36.561,34.281
36.503,34.26
36.437,34.242
36.363,34.229
36.281,34.219
36.192,34.213
36.099,34.21
36.001,34.211
35.9,34.216
35.797,34.226
35.693,34.238
35.586,34.254
35.478,34.273
35.368,34.294
35.257,34.32
35.145,34.348
35.034,34.381
34.923,34.417
34.812,34.456
34.702,34.498
34.592,34.541
34.483,34.587
34.374,34.633
34.267,34.681
34.161,34.727
34.057,34.773
33.955,34.818
33.856,34.861
33.759,34.901
33.665,34.938
33.574,34.971
33.487,34.999
33.403,35.021
33.324,35.035
33.247,35.041
33.174,35.037
33.103,35.024
33.035,35.003
32.968,34.972
32.903,34.934
32.838,34.888
32.774,34.835
32.712,34.777
32.65,34.714
32.589,34.648
32.529,34.578
32.47,34.506
32.412,34.433
32.355,34.359
32.298,34.285
32.243,34.215
32.189,34.149
32.137,34.091
32.087,34.045
32.04,34.014
31.996,34.003
31.956,34.017
31.92,34.062
31.889,34.142
31.862,34.263
31.839,34.427
31.819,34.638
31.802,34.895
31.786,35.198
31.772,35.542
31.759,35.924
31.746,36.335
31.734,36.768
31.722,37.214
31.71,37.663
31.698,38.105
31.688,38.532
31.678,38.934
31.669,39.303
31.662,39.633
31.657,39.921
31.654,40.162
31.652,40.358
31.651,40.507
31.651,40.613
31.652,40.676
31.655,40.701
31.657,40.69
31.66,40.648
31.662,40.577
31.662,40.482
31.661,40.366
31.66,40.234
31.658,40.089
31.656,39.936
31.652,39.778
31.647,39.618
31.642,39.457
31.636,39.299
31.63,39.143
31.627,38.99
31.627,38.841
31.632,38.694
31.646,38.55
31.671,38.408
31.71,38.269
31.766,38.133
31.844,38
31.949,37.87
32.085,37.743
32.258,37.618
32.475,37.496
32.742,37.374
33.064,37.253
33.446,37.133
33.891,37.012
34.4,36.89
34.971,36.766
35.6,36.639
36.281,36.508
37.004,36.372
37.76,36.233
38.536,36.09
39.317,35.945
40.089,35.798
40.839,35.65
41.552,35.502
42.217,35.354
42.822,35.209
43.36,35.065
43.823,34.926
44.208,34.792
44.513,34.665
44.739,34.547
44.889,34.439
44.968,34.342
44.981,34.255
44.934,34.18
44.835,34.117
44.691,34.064
44.509,34.023
44.295,33.995
44.057,33.98
43.799,33.979
43.527,33.99
43.246,34.012
42.959,34.046
42.669,34.09
42.38,34.142
42.094,34.202
41.811,34.269
41.533,34.341
41.259,34.419
40.989,34.5
40.722,34.586
40.459,34.675
40.198,34.767
39.941,34.859
39.687,34.952
39.435,35.045
39.187,35.137
38.943,35.229
38.704,35.319
38.469,35.408
38.24,35.492
38.016,35.572
37.798,35.645
37.585,35.712
37.378,35.773
37.175,35.827
36.978,35.874
36.784,35.912
36.595,35.943
36.411,35.964
36.231,35.977
36.056,35.982
35.886,35.977
35.721,35.964
35.561,35.943
35.408,35.913
35.263,35.874
35.128,35.828
35.002,35.775
34.889,35.716
34.788,35.653
34.699,35.584
34.623,35.511
34.56,35.434
34.511,35.352
34.475,35.267
34.454,35.178
34.447,35.088
34.455,34.994
34.477,34.898
34.513,34.799
34.564,34.698
34.626,34.595
34.7,34.49
34.785,34.383
34.88,34.275
34.983,34.166
35.093,34.057
35.207,33.95
35.326,33.845
35.446,33.743
35.567,33.644
35.687,33.549
35.804,33.458
35.918,33.372
36.026,33.29
36.126,33.212
36.218,33.138
36.3,33.067
36.371,32.998
36.43,32.931
36.477,32.866
36.511,32.803
36.532,32.742
36.54,32.684
36.535,32.628
36.518,32.575
36.488,32.525
36.447,32.479
36.396,32.436
36.336,32.397
36.269,32.361
36.194,32.328
36.113,32.297
36.026,32.267
35.934,32.239
35.837,32.211
35.735,32.183
35.63,32.155
35.523,32.128
35.413,32.1
35.302,32.072
35.19,32.044
35.076,32.018
34.963,31.995
34.85,31.978
34.738,31.97
34.628,31.975
34.52,31.997
34.415,32.042
34.312,32.116
34.213,32.224
34.117,32.375
34.024,32.573
33.932,32.823
33.843,33.128
33.755,33.491
33.669,33.911
33.583,34.384
33.498,34.907
33.416,35.472
33.335,36.067
33.256,36.682
33.178,37.303
33.102,37.918
33.027,38.514
32.955,39.079
32.885,39.602
32.818,40.074
32.752,40.49
32.69,40.843
32.63,41.133
32.574,41.36
32.521,41.523
32.473,41.628
32.428,41.676
32.383,41.674
32.337,41.627
32.291,41.541
32.245,41.422
32.2,41.276
32.157,41.11
32.117,40.927
32.082,40.734
32.051,40.534
32.026,40.33
32.006,40.125
31.992,39.921
31.982,39.718
31.978,39.516
31.977,39.316
31.979,39.118
31.983,38.923
31.988,38.73
31.995,38.54
32.002,38.353
32.01,38.169
32.016,37.988
32.021,37.809
32.023,37.632
32.023,37.456
32.021,37.281
32.017,37.108
32.01,36.936
32.001,36.765
31.992,36.597
31.984,36.432
31.978,36.269
31.978,36.107
31.985,35.948
32.002,35.789
32.033,35.632
32.081,35.476
32.15,35.32
32.247,35.166
32.376,35.014
32.544,34.863
32.757,34.716
33.02,34.571
33.338,34.429
33.715,34.291
34.152,34.159
34.65,34.033
35.205,33.914
35.813,33.804
36.466,33.704
37.153,33.614
37.866,33.535
38.59,33.469
39.314,33.416
40.024,33.378
40.707,33.354
41.35,33.344
41.945,33.348
42.482,33.365
42.955,33.393
43.357,33.433
43.687,33.483
43.944,33.543
44.129,33.611
44.245,33.687
44.296,33.768
44.287,33.854
44.226,33.941
44.118,34.03
43.971,34.119
43.792,34.208
43.587,34.294
43.362,34.377
43.123,34.455
42.875,34.527
42.621,34.592
42.364,34.65
42.106,34.7
41.847,34.743
41.59,34.778
41.334,34.806
41.079,34.824
40.827,34.835
40.578,34.837
40.332,34.832
40.089,34.819
39.85,34.8
39.616,34.774
39.385,34.741
39.157,34.703
38.931,34.66
38.707,34.613
38.485,34.56
38.265,34.503
38.045,34.443
37.827,34.382
37.608,34.32
37.391,34.257
37.174,34.193
36.958,34.128
36.745,34.062
36.536,33.995
36.331,33.926
36.132,33.854
35.938,33.78
35.752,33.704
35.573,33.625
35.403,33.544
35.242,33.462
35.092,33.378
34.953,33.295
34.825,33.213
34.708,33.13
34.604,33.049
34.512,32.968
34.431,32.89
34.364,32.812
34.309,32.737
34.268,32.665
34.241,32.596
34.228,32.53
34.23,32.467
34.247,32.407
34.278,32.348
34.323,32.291
34.382,32.236
34.454,32.182
34.538,32.13
34.632,32.081
34.736,32.033
34.847,31.988
34.965,31.944
35.087,31.902
35.21,31.861
35.333,31.823
35.454,31.787
35.571,31.752
35.683,31.72
35.789,31.69
35.887,31.662
35.976,31.635
36.056,31.612
36.125,31.591
36.182,31.573
36.225,31.557
36.254,31.545
36.27,31.535
36.272,31.528
36.261,31.522
36.237,31.517
36.203,31.512
36.157,31.507
36.101,31.502
36.035,31.498
35.959,31.494
35.875,31.491
35.783,31.489
35.685,31.489
35.581,31.493
35.475,31.503
35.366,31.52
35.256,31.548
35.146,31.591
35.037,31.655
34.929,31.746
34.824,31.87
34.72,32.035
34.618,32.246
34.518,32.508
34.42,32.826
34.322,33.202
34.226,33.637
34.132,34.129
34.039,34.674
33.948,35.264
33.858,35.889
33.769,36.536
33.681,37.194
33.594,37.846
33.507,38.481
33.422,39.084
33.338,39.645
33.255,40.153
33.174,40.601
33.093,40.984
33.014,41.298
32.935,41.543
32.858,41.719
32.783,41.829
32.712,41.879
32.643,41.874
32.577,41.82
32.515,41.724
32.458,41.592
32.404,41.43
32.353,41.245
32.306,41.041
32.26,40.825
32.217,40.601
32.177,40.373
32.139,40.142
32.104,39.912
32.071,39.684
32.04,39.458
32.011,39.237
31.984,39.019
31.957,38.802
31.931,38.584
31.907,38.366
31.883,38.148
31.859,37.932
31.836,37.718
31.813,37.507
31.791,37.301
31.769,37.099
31.749,36.903
31.73,36.712
31.712,36.527
31.696,36.349
31.681,36.176
31.667,36.008
31.655,35.845
31.646,35.685
31.64,35.526
31.639,35.368
31.643,35.21
31.653,35.052
31.673,34.894
31.706,34.736
31.756,34.578
31.827,34.421
31.925,34.265
32.057,34.111
32.229,33.961
32.447,33.815
32.717,33.674
33.043,33.541
33.431,33.416
33.882,33.301
34.396,33.197
34.97,33.105
35.6,33.025
36.278,32.959
36.994,32.907
37.736,32.87
38.49,32.847
39.245,32.837
39.984,32.84
40.696,32.855
41.368,32.881
41.989,32.918
42.55,32.965
43.044,33.022
43.467,33.088
43.815,33.163
44.088,33.245
44.288,33.332
44.419,33.423
44.485,33.517
44.491,33.613
44.444,33.709
44.351,33.804
44.218,33.895
44.052,33.982
43.858,34.063
43.644,34.137
43.413,34.204
43.17,34.262
42.921,34.311
42.667,34.351
42.412,34.38
42.157,34.398
41.904,34.407
41.655,34.405
41.409,34.393
41.167,34.373
40.929,34.342
40.694,34.302
40.463,34.253
40.235,34.195
40.01,34.128
39.789,34.054
39.57,33.973
39.353,33.887
39.139,33.796
38.927,33.701
38.717,33.603
38.509,33.502
38.303,33.4
38.1,33.298
37.899,33.194
37.701,33.092
37.506,32.991
37.313,32.892
37.124,32.796
36.937,32.702
36.754,32.611
36.574,32.522
36.399,32.437
36.23,32.354
36.067,32.273
35.912,32.195
35.766,32.119
35.628,32.047
35.499,31.977
35.379,31.91
35.268,31.843
35.167,31.779
35.076,31.716
34.995,31.655
34.925,31.596
34.866,31.538
34.817,31.483
34.779,31.429
34.752,31.377
34.738,31.327
34.736,31.279
34.747,31.235
34.772,31.193
34.809,31.154
34.859,31.118
34.919,31.085
34.989,31.055
35.067,31.027
35.151,31.002
35.24,30.98
35.333,30.96
35.428,30.944
35.523,30.93
35.616,30.919
35.707,30.909
35.792,30.901
35.872,30.895
35.944,30.891
36.01,30.888
36.067,30.887
36.113,30.887
36.149,30.887
36.174,30.888
36.187,30.889
36.189,30.89
36.179,30.893
36.157,30.896
36.125,30.9
36.083,30.905
36.031,30.912
35.972,30.919
35.904,30.926
35.831,30.932
35.752,30.937
35.668,30.94
35.58,30.942
35.488,30.941
35.393,30.939
35.294,30.935
35.194,30.93
35.093,30.924
34.991,30.919
34.888,30.917
34.784,30.92
34.68,30.933
34.575,30.959
34.471,31.004
34.367,31.076
34.263,31.18
34.161,31.325
34.06,31.516
33.96,31.758
33.862,32.056
33.765,32.413
33.671,32.829
33.579,33.301
33.49,33.825
33.404,34.391
33.319,34.992
33.235,35.619
33.153,36.264
33.071,36.915
32.99,37.562
32.909,38.194
32.83,38.799
32.752,39.369
32.676,39.894
32.602,40.366
32.531,40.779
32.463,41.127
32.397,41.409
32.334,41.625
32.275,41.775
32.218,41.862
32.166,41.89
32.118,41.863
32.074,41.787
32.034,41.668
31.998,41.513
31.966,41.328
31.938,41.119
31.913,40.892
31.892,40.65
31.872,40.4
31.855,40.144
31.839,39.885
31.825,39.627
31.812,39.369
31.799,39.113
31.788,38.861
31.777,38.612
31.766,38.366
31.756,38.125
31.747,37.887
31.739,37.653
31.732,37.422
31.726,37.194
31.722,36.969
31.72,36.746
31.719,36.526
31.719,36.307
31.72,36.091
31.721,35.876
31.723,35.663
31.724,35.452
31.726,35.243
31.726,35.037
31.725,34.834
31.724,34.633
31.721,34.435
31.718,34.241
31.716,34.049
31.713,33.861
31.713,33.676
31.715,33.492
31.722,33.313
31.734,33.138
31.757,32.97
31.795,32.81
31.853,32.661
31.936,32.526
32.052,32.404
32.207,32.299
32.407,32.212
32.659,32.145
32.967,32.097
33.338,32.07
33.772,32.064
34.27,32.077
34.831,32.108
35.451,32.156
36.121,32.221
36.831,32.299
37.571,32.391
38.326,32.494
39.084,32.606
39.83,32.725
40.551,32.849
41.234,32.979
41.868,33.113
42.443,33.251
42.952,33.391
43.389,33.531
43.751,33.671
44.034,33.809
44.238,33.944
44.367,34.074
44.425,34.2
44.419,34.321
44.356,34.436
44.245,34.545
44.094,34.646
43.912,34.739
43.705,34.825
43.48,34.901
43.243,34.969
42.998,35.027
42.751,35.075
42.502,35.113
42.256,35.14
42.013,35.157
41.773,35.164
41.537,35.16
41.305,35.147
41.075,35.125
40.847,35.095
40.621,35.059
40.396,35.016
40.173,34.968
39.951,34.915
39.73,34.856
39.511,34.792
39.294,34.725
39.078,34.656
38.865,34.586
38.654,34.516
38.447,34.447
38.243,34.377
38.042,34.307
37.845,34.236
37.651,34.165
37.46,34.093
37.272,34.02
37.087,33.948
36.905,33.876
36.725,33.805
36.548,33.736
36.373,33.67
36.202,33.607
36.035,33.548
35.873,33.492
35.716,33.439
35.567,33.39
35.427,33.345
35.295,33.303
35.174,33.264
35.064,33.229
34.965,33.196
34.88,33.166
34.808,33.138
34.751,33.112
34.709,33.089
34.681,33.066
34.668,33.045
34.667,33.024
34.68,33.005
34.704,32.989
34.74,32.974
34.788,32.962
34.846,32.951
34.914,32.942
34.991,32.933
35.075,32.924
35.165,32.914
35.258,32.904
35.354,32.895
35.451,32.886
35.547,32.879
35.64,32.875
35.731,32.874
35.817,32.879
35.898,32.892
35.972,32.917
36.039,32.959
36.096,33.022
36.144,33.113
36.18,33.235
36.204,33.396
36.217,33.598
36.218,33.846
36.207,34.143
36.185,34.488
36.151,34.881
36.106,35.318
36.05,35.794
35.984,36.301
35.908,36.832
35.825,37.377
35.735,37.927
35.639,38.469
35.539,38.994
35.435,39.493
35.328,39.955
35.219,40.374
35.109,40.744
34.999,41.06
34.89,41.318
34.783,41.519
34.678,41.663
34.574,41.753
34.473,41.79
34.374,41.781
34.277,41.729
34.182,41.64
34.089,41.519
33.998,41.372
33.908,41.204
33.82,41.019
33.733,40.821
33.647,40.613
33.561,40.398
33.475,40.178
33.388,39.954
33.3,39.73
33.21,39.505
33.119,39.281
33.026,39.057
32.933,38.833
32.84,38.61
32.748,38.388
32.657,38.168
32.569,37.951
32.484,37.735
32.404,37.52
32.327,37.308
32.256,37.098
32.189,36.89
32.128,36.685
32.072,36.482
32.02,36.282
31.973,36.085
31.929,35.891
31.889,35.701
31.852,35.513
31.818,35.33
31.787,35.15
31.757,34.974
31.73,34.802
31.704,34.634
31.679,34.471
31.657,34.312
31.635,34.16
31.616,34.014
31.597,33.875
31.578,33.744
31.561,33.622
31.545,33.508
31.529,33.402
31.516,33.306
31.505,33.22
31.497,33.144
31.492,33.08
31.488,33.026
31.486,32.983
31.485,32.951
31.486,32.928
31.488,32.916
31.491,32.913
31.495,32.92
31.5,32.937
31.508,32.963
31.516,32.998
31.527,33.042
31.54,33.093
31.555,33.151
31.571,33.216
31.588,33.287
31.605,33.362
31.622,33.44
31.637,33.522
31.652,33.604
31.664,33.687
31.676,33.768
31.685,33.848
31.693,33.925
31.698,33.999
31.702,34.069
31.704,34.135
31.705,34.196
31.705,34.251
31.704,34.302
31.7,34.347
31.696,34.387
31.691,34.421
31.686,34.449
31.684,34.472
31.686,34.488
31.695,34.498
31.715,34.502
31.752,34.501
31.808,34.495
31.888,34.484
32,34.469
32.149,34.45
32.341,34.428
32.583,34.401
32.88,34.371
33.239,34.338
33.665,34.301
34.161,34.261
34.725,34.216
35.352,34.167
36.035,34.115
36.762,34.06
37.52,34.002
38.296,33.941
39.076,33.879
39.843,33.815
40.585,33.751
41.287,33.686
41.937,33.623
42.527,33.561
43.048,33.501
43.494,33.443
43.863,33.385
44.153,33.327
44.366,33.27
44.505,33.214
44.574,33.157
44.581,33.101
44.53,33.046
44.429,32.992
44.286,32.937
44.108,32.883
43.902,32.83
43.674,32.777
43.428,32.725
43.172,32.676
42.908,32.63
42.641,32.586
42.374,32.546
42.109,32.508
41.848,32.473
41.592,32.44
41.339,32.409
41.091,32.38
40.846,32.353
40.605,32.329
40.366,32.305
40.129,32.282
39.895,32.261
39.663,32.24
39.432,32.219
39.203,32.201
38.975,32.184
38.75,32.172
38.528,32.163
38.309,32.161
38.094,32.168
37.883,32.187
37.677,32.223
37.475,32.281
37.277,32.368
37.083,32.491
36.893,32.657
36.706,32.87
36.523,33.137
36.344,33.46
36.17,33.84
36.001,34.279
35.837,34.771
35.68,35.314
35.53,35.897
35.389,36.512
35.256,37.146
35.133,37.788
35.022,38.423
34.923,39.039
34.838,39.626
34.766,40.17
34.709,40.665
34.666,41.102
34.638,41.477
34.623,41.788
34.623,42.033
34.637,42.215
34.665,42.335
34.706,42.398
34.76,42.409
34.825,42.374
34.902,42.3
34.988,42.192
35.082,42.055
35.184,41.895
35.292,41.718
35.402,41.526
35.514,41.325
35.626,41.118
35.735,40.906
35.84,40.692
35.938,40.477
36.029,40.263
36.109,40.049
36.18,39.837
36.239,39.625
36.285,39.415
36.32,39.206
36.343,39
36.353,38.797
36.351,38.596
36.337,38.396
36.312,38.199
36.276,38.003
36.229,37.811
36.173,37.623
36.108,37.439
36.035,37.258
35.956,37.081
35.871,36.907
35.78,36.734
35.685,36.562
35.585,36.39
35.481,36.219
35.376,36.049
35.269,35.879
35.161,35.71
35.052,35.542
34.943,35.375
34.833,35.21
34.721,35.047
34.609,34.889
34.496,34.736
34.385,34.592
34.275,34.455
34.167,34.329
34.062,34.212
33.959,34.105
33.857,34.009
33.757,33.925
33.659,33.851
33.564,33.79
33.471,33.739
33.381,33.7
33.294,33.671
33.209,33.653
33.125,33.645
33.044,33.648
32.965,33.66
32.889,33.68
32.816,33.709
32.745,33.746
32.676,33.789
32.609,33.84
32.542,33.897
32.477,33.961
32.414,34.031
32.351,34.108
32.289,34.189
32.227,34.274
32.168,34.362
32.111,34.451
32.056,34.541
32.005,34.629
31.957,34.713
31.913,34.794
31.873,34.87
31.836,34.94
31.801,35.003
31.768,35.058
31.738,35.103
31.711,35.138
31.685,35.162
31.662,35.175
31.642,35.176
31.623,35.166
31.607,35.146
31.593,35.115
31.581,35.075
31.57,35.026
31.561,34.97
31.553,34.908
31.546,34.842
31.541,34.772
31.536,34.7
31.532,34.627
31.529,34.554
31.527,34.482
31.526,34.412
31.526,34.343
31.527,34.275
31.53,34.209
31.534,34.145
31.54,34.081
31.548,34.019
31.558,33.956
31.57,33.891
31.584,33.825
31.6,33.757
31.617,33.686
31.634,33.614
31.652,33.539
31.67,33.464
31.688,33.388
31.706,33.312
31.725,33.238
31.744,33.167
31.762,33.099
31.778,33.036
31.793,32.978
31.806,32.924
31.817,32.873
31.825,32.826
31.831,32.781
31.835,32.74
31.836,32.701
31.833,32.665
31.827,32.631
31.817,32.599
31.805,32.568
31.793,32.538
31.779,32.507
31.766,32.476
31.754,32.443
31.743,32.409
31.734,32.374
31.725,32.338
31.719,32.301
31.716,32.263
31.716,32.224
31.719,32.184
31.725,32.143
31.738,32.1
31.757,32.056
31.787,32.011
31.831,31.964
31.894,31.916
31.981,31.869
32.099,31.825
32.256,31.786
32.457,31.755
32.713,31.737
33.029,31.738
33.411,31.764
33.864,31.823
34.387,31.921
34.981,32.065
35.639,32.264
36.354,32.522
37.115,32.844
37.911,33.231
38.725,33.683
39.541,34.196
40.344,34.763
41.118,35.377
41.849,36.027
42.524,36.701
43.132,37.386
43.666,38.066
44.118,38.728
44.486,39.358
44.768,39.945
44.967,40.478
45.087,40.95
45.132,41.354
45.11,41.687
45.029,41.949
44.898,42.14
44.725,42.266
44.516,42.331
44.28,42.338
44.023,42.294
43.75,42.207
43.466,42.082
43.176,41.928
42.884,41.75
42.592,41.555
42.302,41.347
42.017,41.132
41.737,40.913
41.463,40.693
41.195,40.474
40.933,40.257
40.676,40.043
40.423,39.832
40.174,39.622
39.931,39.413
39.691,39.205
39.456,38.998
39.225,38.793
38.998,38.588
38.776,38.385
38.557,38.183
38.343,37.983
38.133,37.786
37.927,37.59
37.723,37.396
37.522,37.203
37.323,37.011
37.126,36.82
36.932,36.629
36.741,36.438
36.551,36.248
36.365,36.058
36.183,35.869
36.005,35.682
35.833,35.497
35.669,35.315
35.513,35.135
35.368,34.958
35.234,34.786
35.112,34.619
35.005,34.458
34.912,34.306
34.835,34.162
34.773,34.028
34.726,33.904
34.694,33.791
34.677,33.691
34.674,33.605
34.685,33.533
34.71,33.475
34.748,33.433
34.798,33.406
34.859,33.395
34.93,33.398
35.01,33.416
35.098,33.448
35.193,33.492
35.294,33.548
35.399,33.614
35.508,33.691
35.617,33.776
35.726,33.868
35.832,33.966
35.934,34.069
36.029,34.173
36.118,34.279
36.198,34.383
36.269,34.484
36.33,34.581
36.378,34.672
36.414,34.756
36.436,34.832
36.445,34.899
36.439,34.958
36.421,35.008
36.391,35.049
36.349,35.08
36.298,35.101
36.237,35.111
36.167,35.111
36.09,35.101
36.006,35.083
35.915,35.056
35.818,35.024
35.717,34.985
35.612,34.942
35.504,34.895
35.393,34.845
35.281,34.792
35.168,34.738
35.054,34.681
34.94,34.623
34.827,34.563
34.715,34.502
34.605,34.442
34.498,34.382
34.393,34.323
34.291,34.266
34.192,34.209
34.094,34.154
33.999,34.099
33.906,34.045
33.814,33.99
33.723,33.937
33.633,33.884
33.545,33.833
33.457,33.783
33.37,33.734
33.282,33.686
33.195,33.64
33.107,33.594
33.02,33.55
32.933,33.508
32.847,33.466
32.76,33.426
32.675,33.388
32.592,33.35
32.511,33.312
32.433,33.275
32.359,33.239
32.289,33.204
32.224,33.169
32.164,33.136
32.109,33.102
32.059,33.067
32.014,33.03
31.973,32.991
31.935,32.949
31.901,32.904
31.87,32.857
31.84,32.81
31.812,32.764
31.784,32.719
31.757,32.676
31.731,32.633
31.706,32.592
31.681,32.55
31.657,32.509
31.633,32.469
31.609,32.429
31.586,32.39
31.564,32.351
31.542,32.313
31.522,32.275
31.504,32.238
31.488,32.201
31.476,32.166
31.467,32.132
31.461,32.101
31.459,32.071
31.461,32.044
31.466,32.021
31.475,32.002
31.485,31.991
31.497,31.993
31.51,32.012
31.522,32.052
31.535,32.121
31.548,32.224
31.56,32.368
31.572,32.558
31.584,32.799
31.595,33.097
31.607,33.451
31.618,33.863
31.628,34.33
31.638,34.846
31.648,35.405
31.659,35.998
31.67,36.615
31.682,37.244
31.692,37.872
31.702,38.485
31.711,39.071
31.719,39.619
31.725,40.119
31.731,40.562
31.736,40.943
31.741,41.259
31.745,41.508
31.747,41.691
31.747,41.809
31.747,41.868
31.744,41.876
31.742,41.839
31.738,41.763
31.734,41.653
31.731,41.514
31.729,41.35
31.732,41.165
31.74,40.964
31.757,40.748
31.787,40.523
31.834,40.29
31.903,40.052
31.999,39.813
32.13,39.574
32.303,39.336
32.525,39.101
32.804,38.871
33.146,38.645
33.555,38.424
34.034,38.209
34.583,37.998
35.2,37.792
35.879,37.587
36.611,37.385
37.385,37.183
38.189,36.982
39.005,36.781
39.82,36.579
40.617,36.377
41.38,36.175
42.097,35.974
42.754,35.772
43.342,35.57
43.852,35.37
44.28,35.171
44.622,34.973
44.878,34.779
45.052,34.587
45.147,34.4
45.17,34.218
45.126,34.042
45.024,33.874
44.873,33.714
44.679,33.563
44.452,33.424
44.198,33.296
43.924,33.18
43.636,33.078
43.34,32.99
43.039,32.917
42.737,32.859
42.438,32.816
42.142,32.789
41.851,32.777
41.565,32.779
41.284,32.795
41.008,32.824
40.737,32.866
40.469,32.921
40.205,32.987
39.945,33.064
39.689,33.151
39.437,33.247
39.19,33.351
38.948,33.462
38.71,33.579
38.477,33.701
38.248,33.828
38.023,33.959
37.801,34.092
37.584,34.226
37.371,34.36
37.163,34.494
36.959,34.625
36.759,34.754
36.562,34.878
36.369,34.996
36.179,35.108
35.994,35.212
35.813,35.307
35.638,35.392
35.469,35.466
35.309,35.527
35.157,35.575
35.015,35.609
34.884,35.631
34.766,35.641
34.661,35.639
34.57,35.628
34.494,35.607
34.433,35.578
34.388,35.542
34.36,35.5
34.347,35.454
34.35,35.404
34.368,35.351
34.399,35.294
34.442,35.233
34.496,35.169
34.561,35.101
34.637,35.032
34.722,34.96
34.816,34.887
34.918,34.812
35.025,34.735
35.137,34.658
35.25,34.579
35.364,34.5
35.477,34.423
35.589,34.347
35.696,34.274
35.799,34.205
35.894,34.138
35.98,34.074
36.057,34.014
36.122,33.958
36.175,33.905
36.215,33.855
36.243,33.809
36.259,33.766
36.262,33.726
36.252,33.687
36.232,33.649
36.201,33.611
36.16,33.574
36.11,33.537
36.052,33.501
35.987,33.464
35.915,33.428
35.837,33.39
35.755,33.35
35.668,33.31
35.578,33.269
35.484,33.228
35.387,33.189
35.287,33.152
35.184,33.115
35.08,33.078
34.974,33.042
34.866,33.005
34.756,32.968
34.645,32.933
34.534,32.899
34.423,32.867
34.311,32.835
34.201,32.803
34.091,32.771
33.983,32.739
33.875,32.705
33.767,32.671
33.661,32.636
33.557,32.6
33.456,32.562
33.358,32.522
33.263,32.481
33.171,32.438
33.082,32.396
32.995,32.357
32.91,32.323
32.827,32.297
32.747,32.282
32.669,32.283
32.593,32.303
32.518,32.35
32.446,32.428
32.375,32.546
32.307,32.708
32.24,32.921
32.176,33.19
32.114,33.516
32.056,33.902
32.002,34.345
31.952,34.845
31.905,35.393
31.862,35.984
31.823,36.606
31.787,37.25
31.754,37.902
31.724,38.55
31.694,39.18
31.667,39.781
31.642,40.342
31.618,40.854
31.595,41.308
31.574,41.7
31.553,42.026
31.533,42.284
31.515,42.476
31.498,42.602
31.482,42.667
31.466,42.675
31.451,42.631
31.437,42.542
31.424,42.413
31.412,42.251
31.401,42.062
31.392,41.852
31.384,41.625
31.378,41.387
31.374,41.142
31.372,40.893
31.373,40.644
31.376,40.395
31.382,40.148
31.39,39.903
31.399,39.661
31.41,39.421
31.421,39.185
31.432,38.951
31.444,38.72
31.456,38.492
31.469,38.266
31.481,38.043
31.492,37.821
31.504,37.602
31.515,37.384
31.527,37.168
31.538,36.954
31.55,36.742
31.562,36.532
31.576,36.322
31.591,36.114
31.606,35.906
31.623,35.7
31.639,35.493
31.655,35.288
31.669,35.084
31.682,34.881
31.693,34.682
31.7,34.486
31.704,34.295
31.703,34.11
31.699,33.932
31.692,33.762
31.68,33.603
31.666,33.456
31.649,33.323
31.631,33.204
31.614,33.101
31.6,33.014
31.589,32.943
31.585,32.89
31.592,32.852
31.612,32.83
31.649,32.823
31.708,32.829
31.796,32.849
31.917,32.88
32.08,32.923
32.29,32.975
32.556,33.037
32.883,33.106
33.277,33.183
33.742,33.266
34.279,33.354
34.886,33.445
35.56,33.539
36.291,33.635
37.07,33.732
37.885,33.829
38.719,33.925
39.557,34.019
40.384,34.111
41.183,34.199
41.94,34.282
42.641,34.36
43.276,34.43
43.834,34.493
44.309,34.547
44.697,34.592
44.997,34.628
45.21,34.655
45.339,34.674
45.389,34.685
45.368,34.689
45.283,34.684
45.143,34.672
44.957,34.653
44.734,34.627
44.482,34.595
44.209,34.559
43.921,34.519
43.623,34.475
43.321,34.427
43.019,34.377
42.718,34.324
42.421,34.27
42.128,34.216
41.841,34.16
41.558,34.105
41.28,34.05
41.007,33.994
40.738,33.936
40.472,33.877
40.21,33.816
39.95,33.751
39.693,33.683
39.437,33.613
39.184,33.542
38.933,33.468
38.684,33.394
38.438,33.319
38.195,33.244
37.956,33.169
37.721,33.095
37.491,33.021
37.265,32.95
37.044,32.879
36.829,32.81
36.62,32.741
36.416,32.674
36.219,32.608
36.029,32.544
35.846,32.481
35.669,32.42
35.499,32.361
35.337,32.304
35.182,32.247
35.035,32.191
34.897,32.136
34.77,32.082
34.653,32.029
34.549,31.978
34.459,31.928
34.384,31.881
34.324,31.835
34.281,31.79
34.255,31.745
34.245,31.702
34.252,31.66
34.275,31.618
34.314,31.579
34.368,31.54
34.438,31.502
34.52,31.466
34.615,31.429
34.719,31.393
34.832,31.356
34.951,31.318
35.075,31.28
35.202,31.241
35.33,31.203
35.458,31.165
35.583,31.128
35.703,31.094
35.817,31.062
35.923,31.037
36.018,31.018
36.103,31.009
36.177,31.013
36.238,31.034
36.286,31.076
36.32,31.144
36.341,31.242
36.347,31.378
36.339,31.556
36.318,31.782
36.285,32.059
36.241,32.39
36.187,32.777
36.124,33.218
36.053,33.709
35.975,34.245
35.892,34.819
35.803,35.423
35.71,36.045
35.612,36.676
35.511,37.305
35.407,37.92
35.3,38.51
35.191,39.066
35.08,39.579
34.968,40.04
34.855,40.444
34.741,40.785
34.626,41.061
34.51,41.271
34.393,41.416
34.275,41.499
34.156,41.525
34.036,41.499
33.916,41.427
33.795,41.315
33.675,41.169
33.556,40.995
33.439,40.797
33.323,40.581
33.209,40.35
33.098,40.109
32.989,39.859
32.884,39.603
32.782,39.344
32.684,39.083
32.591,38.822
32.502,38.561
32.418,38.303
32.337,38.046
32.259,37.793
32.184,37.543
32.111,37.296
32.04,37.051
31.97,36.808
31.902,36.568
31.836,36.33
31.771,36.093
31.71,35.858
31.65,35.625
31.593,35.394
31.539,35.165
31.489,34.938
31.442,34.714
31.398,34.491
31.358,34.272
31.322,34.058
31.29,33.849
31.261,33.648
31.236,33.457
31.214,33.276
31.196,33.106
31.181,32.949
31.169,32.804
31.16,32.674
31.153,32.557
31.148,32.456
31.144,32.371
31.141,32.302
31.139,32.251
31.137,32.215
31.137,32.196
31.137,32.194
31.139,32.206
31.142,32.234
31.147,32.278
31.155,32.336
31.165,32.407
31.176,32.491
31.19,32.586
31.205,32.692
31.222,32.808
31.24,32.932
31.259,33.064
31.277,33.202
31.296,33.345
31.315,33.49
31.334,33.637
31.353,33.783
31.371,33.928
31.387,34.071
31.403,34.209
31.418,34.343
31.431,34.469
31.445,34.587
31.457,34.695
31.468,34.792
31.478,34.876
31.487,34.948
31.493,35.008
31.497,35.056
31.5,35.093
31.503,35.12
31.505,35.136
31.507,35.143
31.508,35.14
31.51,35.128
31.513,35.108
31.518,35.079
31.527,35.041
31.541,34.997
31.562,34.946
31.595,34.889
31.645,34.829
31.718,34.766
31.819,34.703
31.956,34.641
32.136,34.579
32.365,34.518
32.65,34.458
32.997,34.398
33.409,34.337
33.891,34.277
34.442,34.216
35.06,34.155
35.741,34.092
36.478,34.029
37.259,33.966
38.073,33.903
38.905,33.84
39.738,33.779
40.558,33.718
41.349,33.658
42.097,33.6
42.789,33.542
43.412,33.486
43.959,33.432
44.423,33.381
44.8,33.333
45.089,33.29
45.29,33.251
45.406,33.218
45.443,33.188
45.406,33.162
45.305,33.137
45.146,33.115
44.94,33.094
44.695,33.075
44.421,33.058
44.125,33.041
43.813,33.025
43.492,33.009
43.167,32.991
42.841,32.971
42.516,32.948
42.194,32.922
41.878,32.894
41.568,32.862
41.265,32.828
40.968,32.79
40.678,32.75
40.394,32.71
40.116,32.672
39.842,32.639
39.573,32.617
39.308,32.61
39.046,32.622
38.787,32.659
38.532,32.727
38.279,32.831
38.03,32.978
37.785,33.173
37.544,33.418
37.308,33.716
37.076,34.066
36.849,34.467
36.626,34.912
36.409,35.398
36.196,35.916
35.989,36.458
35.788,37.015
35.594,37.577
35.408,38.135
35.229,38.679
35.06,39.198
34.901,39.685
34.752,40.133
34.614,40.534
34.488,40.885
34.376,41.182
34.279,41.423
34.196,41.61
34.128,41.742
34.076,41.822
34.04,41.853
34.021,41.839
34.02,41.786
34.036,41.696
34.069,41.576
34.121,41.429
34.189,41.259
34.273,41.072
34.374,40.87
34.488,40.657
34.615,40.435
34.752,40.206
34.899,39.972
35.052,39.734
35.209,39.493
35.37,39.25
35.53,39.003
35.688,38.754
35.841,38.502
35.986,38.247
36.123,37.989
36.252,37.73
36.37,37.468
36.478,37.206
36.573,36.943
36.654,36.681
36.719,36.42
36.768,36.16
36.798,35.901
36.81,35.645
36.805,35.392
36.783,35.142
36.745,34.896
36.692,34.654
36.627,34.417
36.551,34.184
36.466,33.959
36.372,33.741
36.272,33.532
36.167,33.333
36.057,33.144
35.946,32.967
35.833,32.802
35.718,32.652
35.604,32.518
35.49,32.401
35.377,32.303
35.265,32.224
35.155,32.166
35.048,32.128
34.943,32.108
34.839,32.108
34.737,32.126
34.635,32.162
34.534,32.214
34.433,32.283
34.331,32.366
34.228,32.461
34.124,32.567
34.021,32.683
33.917,32.806
33.815,32.935
33.714,33.07
33.617,33.208
33.522,33.347
33.431,33.486
33.344,33.624
33.26,33.76
33.181,33.891
33.106,34.019
33.035,34.14
32.97,34.255
32.909,34.362
32.853,34.46
32.802,34.55
32.755,34.63
32.711,34.701
32.671,34.763
32.635,34.817
32.601,34.863
32.57,34.902
32.541,34.934
32.513,34.96
32.487,34.979
32.461,34.994
32.435,35.003
32.41,35.007
32.386,35.006
32.362,34.999
32.338,34.987
32.313,34.968
32.287,34.943
32.26,34.913
32.234,34.878
32.209,34.839
32.184,34.795
32.161,34.747
32.139,34.695
32.119,34.64
32.101,34.582
32.085,34.521
32.072,34.46
32.065,34.397
32.064,34.335
32.07,34.273
32.087,34.21
32.116,34.148
32.163,34.086
32.231,34.024
32.328,33.963
32.458,33.904
32.629,33.846
32.849,33.789
33.124,33.735
33.461,33.684
33.863,33.634
34.334,33.588
34.873,33.544
35.478,33.504
36.144,33.466
36.861,33.429
37.618,33.393
38.402,33.358
39.198,33.323
39.989,33.288
40.762,33.253
41.501,33.218
42.193,33.181
42.825,33.141
43.388,33.097
43.876,33.049
44.284,32.996
44.61,32.939
44.854,32.879
45.02,32.817
45.111,32.754
45.134,32.691
45.095,32.629
45.003,32.568
44.865,32.511
44.689,32.462
44.482,32.422
44.251,32.397
44,32.392
43.736,32.412
43.461,32.464
43.18,32.553
42.895,32.685
42.608,32.867
42.321,33.103
42.035,33.394
41.751,33.743
41.47,34.147
41.191,34.604
40.915,35.107
40.642,35.65
40.372,36.224
40.105,36.819
39.842,37.424
39.582,38.028
39.326,38.621
39.075,39.191
38.828,39.731
38.584,40.231
38.343,40.685
38.105,41.086
37.87,41.429
37.636,41.714
37.404,41.939
37.173,42.106
36.944,42.217
36.719,42.274
36.498,42.281
36.28,42.244
36.068,42.167
35.861,42.058
35.66,41.919
35.465,41.758
35.278,41.579
35.1,41.385
34.933,41.182
34.779,40.972
34.639,40.759
34.515,40.544
34.406,40.328
34.313,40.114
34.237,39.901
34.178,39.689
34.135,39.477
34.109,39.265
34.1,39.052
34.107,38.838
34.131,38.622
34.172,38.407
34.229,38.191
34.302,37.975
34.389,37.76
34.491,37.544
34.604,37.329
34.728,37.115
34.861,36.901
35,36.687
35.143,36.474
35.29,36.261
35.437,36.048
35.583,35.837
35.726,35.628
35.864,35.421
35.995,35.218
36.118,35.019
36.23,34.824
36.331,34.635
36.42,34.453
36.495,34.28
36.556,34.118
36.603,33.968
36.634,33.832
36.652,33.71
36.655,33.605
36.644,33.515
36.62,33.443
36.583,33.389
36.534,33.353
36.473,33.335
36.4,33.334
36.318,33.35
36.227,33.381
36.128,33.427
36.022,33.487
35.911,33.559
35.795,33.643
35.675,33.738
35.551,33.843
35.426,33.958
35.3,34.08
35.173,34.209
35.047,34.342
34.921,34.477
34.797,34.613
34.675,34.749
34.555,34.883
34.437,35.012
34.321,35.136
34.207,35.253
34.096,35.363
33.987,35.464
33.88,35.555
33.776,35.636
33.675,35.707
33.577,35.766
33.481,35.814
33.388,35.85
33.299,35.875
33.213,35.89
33.131,35.894
33.052,35.889
32.976,35.874
32.901,35.851
32.83,35.82
32.76,35.783
32.693,35.741
32.627,35.692
32.564,35.639
32.503,35.581
32.443,35.517
32.385,35.45
32.329,35.379
32.275,35.304
32.224,35.227
32.176,35.147
32.132,35.066
32.092,34.983
32.056,34.898
32.025,34.812
31.998,34.726
31.975,34.64
31.956,34.555
31.942,34.472
31.932,34.391
31.925,34.312
31.92,34.234
31.917,34.159
31.914,34.084
31.911,34.01
31.906,33.937
31.901,33.865
31.893,33.793
31.884,33.722
31.873,33.653
31.862,33.587
31.85,33.523
31.838,33.463
31.828,33.408
31.819,33.357
31.813,33.31
31.811,33.267
31.815,33.228
31.826,33.191
31.847,33.155
31.881,33.12
31.932,33.084
32.005,33.048
32.106,33.01
32.242,32.97
32.421,32.929
32.651,32.884
32.939,32.837
33.291,32.788
33.712,32.74
34.205,32.694
34.769,32.654
35.401,32.622
36.094,32.603
36.84,32.599
37.626,32.617
38.438,32.663
39.258,32.747
40.072,32.874
40.863,33.053
41.616,33.288
42.317,33.583
42.956,33.94
43.523,34.357
44.011,34.83
44.418,35.355
44.742,35.923
44.982,36.526
45.143,37.153
45.23,37.793
45.249,38.435
45.208,39.065
45.116,39.672
44.982,40.245
44.812,40.775
44.614,41.254
44.396,41.675
44.161,42.035
43.915,42.332
43.662,42.565
43.406,42.735
43.15,42.845
42.897,42.898
42.646,42.899
42.399,42.855
42.156,42.77
41.917,42.652
41.682,42.506
41.449,42.336
41.218,42.149
40.988,41.948
40.76,41.737
40.533,41.518
40.308,41.294
40.086,41.066
39.867,40.837
39.652,40.606
39.443,40.374
39.238,40.14
39.039,39.905
38.844,39.668
38.654,39.429
38.468,39.188
38.285,38.944
38.104,38.699
37.924,38.453
37.745,38.207
37.567,37.961
37.388,37.715
37.209,37.471
37.032,37.228
36.857,36.986
36.684,36.746
36.514,36.508
36.349,36.273
36.191,36.04
36.041,35.81
35.901,35.584
35.774,35.36
35.661,35.141
35.565,34.926
35.484,34.717
35.421,34.516
35.374,34.325
35.343,34.144
35.327,33.976
35.325,33.819
35.336,33.673
35.36,33.539
35.394,33.419
35.438,33.312
35.491,33.222
35.553,33.148
35.622,33.091
35.699,33.051
35.781,33.029
35.869,33.025
35.959,33.037
36.052,33.066
36.144,33.11
36.234,33.169
36.32,33.24
36.402,33.323
36.478,33.416
36.546,33.517
36.605,33.625
36.654,33.739
36.692,33.858
36.717,33.979
36.73,34.102
36.729,34.224
36.716,34.346
36.69,34.465
36.653,34.582
36.606,34.694
36.549,34.801
36.484,34.901
36.411,34.994
36.332,35.078
36.246,35.152
36.155,35.216
36.058,35.271
35.958,35.315
35.853,35.349
35.745,35.374
35.634,35.391
35.52,35.399
35.404,35.4
35.285,35.393
35.166,35.38
35.045,35.361
34.924,35.338
34.805,35.31
34.686,35.278
34.569,35.243
34.454,35.204
34.339,35.162
34.225,35.116
34.112,35.068
34,35.016
33.888,34.962
33.779,34.905
33.671,34.847
33.566,34.787
33.463,34.726
33.365,34.665
33.27,34.604
33.179,34.542
33.092,34.48
33.009,34.418
32.931,34.357
32.858,34.296
32.79,34.237
32.727,34.178
32.667,34.121
32.61,34.064
32.557,34.007
32.506,33.949
32.458,33.891
32.413,33.832
32.37,33.773
32.331,33.714
32.293,33.653
32.259,33.592
32.227,33.529
32.199,33.463
32.174,33.396
32.152,33.327
32.134,33.257
32.119,33.185
32.107,33.114
32.098,33.042
32.091,32.972
32.086,32.904
32.085,32.839
32.085,32.777
32.087,32.722
32.089,32.673
32.092,32.635
32.095,32.609
32.099,32.6
32.102,32.611
32.106,32.647
32.108,32.715
32.108,32.821
32.105,32.969
32.1,33.166
32.093,33.415
32.085,33.719
32.076,34.077
32.07,34.489
32.068,34.952
32.07,35.46
32.081,36.008
32.103,36.586
32.141,37.184
32.199,37.792
32.283,38.398
32.397,38.99
32.55,39.559
32.748,40.095
32.998,40.587
33.305,41.031
33.674,41.419
34.108,41.751
34.605,42.024
35.165,42.237
35.78,42.392
36.443,42.491
37.144,42.538
37.87,42.537
38.609,42.495
39.346,42.415
40.066,42.304
40.757,42.167
41.406,42.008
42.003,41.831
42.539,41.64
43.006,41.437
43.4,41.226
43.719,41.008
43.963,40.786
44.134,40.562
44.236,40.337
44.273,40.112
44.252,39.888
44.179,39.664
44.062,39.442
43.907,39.221
43.721,39.002
43.511,38.784
43.283,38.567
43.041,38.35
42.789,38.135
42.532,37.921
42.271,37.707
42.009,37.494
41.749,37.281
41.491,37.068
41.236,36.856
40.985,36.646
40.737,36.437
40.493,36.231
40.251,36.026
40.012,35.824
39.776,35.625
39.542,35.43
39.312,35.24
39.086,35.056
38.864,34.879
38.647,34.709
38.434,34.55
38.227,34.4
38.025,34.263
37.827,34.138
37.634,34.027
37.444,33.931
37.257,33.849
37.072,33.783
36.89,33.732
36.709,33.697
36.528,33.677
36.348,33.671
36.168,33.678
35.989,33.698
35.812,33.73
35.638,33.774
35.468,33.827
35.304,33.89
35.148,33.959
35.003,34.035
34.87,34.115
34.75,34.199
34.646,34.285
34.557,34.373
34.485,34.463
34.429,34.553
34.391,34.643
34.369,34.731
34.364,34.817
34.375,34.898
34.401,34.975
34.44,35.045
34.493,35.109
34.558,35.167
34.634,35.22
34.719,35.266
34.812,35.308
34.913,35.343
35.018,35.374
35.126,35.399
35.237,35.418
35.347,35.432
35.455,35.441
35.561,35.444
35.663,35.444
35.759,35.439
35.849,35.431
35.932,35.42
36.005,35.406
36.068,35.389
36.119,35.369
36.159,35.346
36.187,35.322
36.203,35.295
36.207,35.266
36.2,35.233
36.183,35.198
36.154,35.158
36.115,35.116
36.065,35.069
36.005,35.02
35.936,34.968
35.86,34.914
35.777,34.856
35.688,34.796
35.593,34.733
35.494,34.666
35.39,34.597
35.282,34.525
35.171,34.449
35.056,34.371
34.939,34.291
34.82,34.209
34.701,34.127
34.582,34.044
34.463,33.962
34.347,33.882
34.232,33.802
34.12,33.724
34.01,33.647
33.904,33.569
33.801,33.492
33.702,33.414
33.606,33.337
33.512,33.26
33.42,33.185
33.33,33.112
33.242,33.041
33.156,32.971
33.072,32.904
32.989,32.84
32.908,32.782
32.829,32.732
32.752,32.691
32.676,32.664
32.604,32.654
32.534,32.664
32.466,32.699
32.403,32.766
32.343,32.87
32.287,33.016
32.236,33.211
32.188,33.459
32.144,33.761
32.104,34.119
32.069,34.532
32.039,34.996
32.014,35.506
31.995,36.056
31.979,36.636
31.968,37.237
31.96,37.846
31.954,38.453
31.95,39.045
31.947,39.612
31.945,40.142
31.945,40.627
31.946,41.061
31.948,41.437
31.949,41.754
31.951,42.01
31.952,42.205
31.953,42.34
31.953,42.418
31.952,42.445
31.951,42.424
31.95,42.361
31.948,42.261
31.946,42.129
31.944,41.971
31.942,41.79
31.939,41.594
31.936,41.385
31.932,41.168
31.926,40.947
31.921,40.725
31.917,40.504
31.917,40.285
31.923,40.07
31.94,39.859
31.97,39.652
32.021,39.449
32.096,39.248
32.203,39.05
32.348,38.854
32.539,38.659
32.782,38.465
33.082,38.272
33.443,38.079
33.865,37.886
34.348,37.694
34.889,37.501
35.478,37.31
36.109,37.12
36.772,36.933
37.454,36.748
38.144,36.566
38.828,36.387
39.493,36.212
40.128,36.041
40.721,35.874
41.261,35.712
41.741,35.553
42.155,35.4
42.499,35.252
42.771,35.111
42.973,34.978
43.106,34.853
43.175,34.737
43.184,34.631
43.138,34.536
43.044,34.453
42.908,34.383
42.737,34.326
42.538,34.282
42.316,34.253
42.078,34.236
41.83,34.234
41.574,34.246
41.315,34.27
41.054,34.307
40.792,34.356
40.532,34.414
40.273,34.482
40.017,34.558
39.764,34.641
39.515,34.731
39.27,34.827
39.029,34.927
38.792,35.029
38.561,35.134
38.335,35.239
38.114,35.343
37.899,35.445
37.69,35.543
37.487,35.636
37.29,35.725
37.098,35.807
36.91,35.883
36.727,35.952
36.547,36.014
36.368,36.068
36.191,36.113
36.015,36.149
35.839,36.176
35.663,36.194
35.489,36.203
35.315,36.204
35.144,36.195
34.977,36.178
34.814,36.152
34.657,36.118
34.508,36.077
34.367,36.029
34.238,35.977
34.122,35.919
34.02,35.858
33.935,35.792
33.867,35.724
33.816,35.653
33.785,35.579
33.772,35.503
33.778,35.426
33.802,35.348
33.844,35.27
33.903,35.193
33.977,35.117
34.065,35.041
34.165,34.966
34.275,34.891
34.392,34.816
34.515,34.74
34.641,34.664
34.769,34.589
34.896,34.514
35.021,34.439
35.142,34.366
35.258,34.293
35.369,34.221
35.473,34.15
35.569,34.081
35.656,34.014
35.733,33.949
35.798,33.886
35.853,33.825
35.896,33.764
35.929,33.707
35.951,33.655
35.962,33.609
35.962,33.568
35.951,33.53
35.929,33.494
35.897,33.457
35.855,33.418
35.804,33.375
35.744,33.327
35.676,33.275
35.601,33.219
35.519,33.158
35.43,33.093
35.337,33.026
35.24,32.958
35.14,32.888
35.038,32.819
34.936,32.75
34.833,32.684
34.729,32.621
34.626,32.564
34.522,32.515
34.419,32.476
34.315,32.451
34.213,32.444
34.11,32.461
34.007,32.507
33.904,32.589
33.801,32.713
33.698,32.887
33.596,33.115
33.495,33.401
33.396,33.748
33.299,34.155
33.204,34.622
33.111,35.143
33.021,35.714
32.932,36.324
32.847,36.964
32.763,37.621
32.683,38.283
32.606,38.938
32.532,39.574
32.462,40.179
32.396,40.741
32.335,41.253
32.278,41.707
32.225,42.101
32.176,42.431
32.13,42.695
32.089,42.894
32.051,43.031
32.018,43.11
31.989,43.134
31.965,43.109
31.945,43.041
31.929,42.934
31.918,42.795
31.911,42.63
31.908,42.445
31.908,42.244
31.912,42.032
31.919,41.814
31.929,41.591
31.941,41.365
31.955,41.138
31.97,40.912
31.986,40.686
32.002,40.462
32.017,40.237
32.03,40.013
32.041,39.788
32.049,39.563
32.056,39.338
32.061,39.111
32.063,38.884
32.064,38.656
32.063,38.429
32.061,38.203
32.058,37.978
32.056,37.754
32.054,37.532
32.055,37.311
32.058,37.092
32.065,36.875
32.078,36.661
32.097,36.45
32.127,36.243
32.172,36.041
32.237,35.844
32.325,35.651
32.442,35.464
32.595,35.282
32.79,35.105
33.031,34.936
33.324,34.775
33.673,34.624
34.078,34.485
34.538,34.36
35.05,34.248
35.607,34.152
36.203,34.072
36.829,34.009
37.472,33.962
38.123,33.931
38.768,33.916
39.395,33.916
39.992,33.93
40.55,33.958
41.058,33.998
41.51,34.049
41.9,34.111
42.225,34.183
42.48,34.263
42.668,34.351
42.79,34.446
42.849,34.547
42.851,34.652
42.801,34.762
42.705,34.873
42.571,34.985
42.404,35.098
42.211,35.209
41.997,35.319
41.767,35.426
41.526,35.526
41.277,35.62
41.024,35.705
40.769,35.78
40.512,35.846
40.256,35.901
40.001,35.945
39.747,35.978
39.496,36.001
39.248,36.013
39.003,36.016
38.762,36.009
38.525,35.993
38.291,35.968
38.062,35.935
37.838,35.894
37.617,35.845
37.402,35.79
37.191,35.728
36.986,35.661
36.785,35.59
36.59,35.516
36.399,35.438
36.213,35.358
36.03,35.276
35.85,35.193
35.672,35.11
35.496,35.028
35.321,34.946
35.148,34.866
34.978,34.788
34.813,34.712
34.653,34.639
34.5,34.567
34.355,34.496
34.22,34.427
34.097,34.358
33.987,34.289
33.893,34.219
33.816,34.149
33.758,34.079
33.718,34.007
33.699,33.934
33.7,33.86
33.721,33.785
33.761,33.71
33.82,33.635
33.896,33.56
33.989,33.485
34.097,33.411
34.218,33.338
34.349,33.267
34.489,33.199
34.637,33.134
34.79,33.072
34.947,33.012
35.106,32.955
35.264,32.9
35.419,32.846
35.569,32.794
35.712,32.743
35.846,32.694
35.969,32.648
36.08,32.604
36.177,32.562
36.26,32.521
36.327,32.481
36.379,32.442
36.415,32.403
36.436,32.365
36.442,32.328
36.434,32.293
36.413,32.26
36.38,32.228
36.335,32.196
36.281,32.166
36.217,32.136
36.144,32.108
36.064,32.082
35.977,32.058
35.885,32.035
35.788,32.015
35.686,31.996
35.582,31.979
35.475,31.964
35.366,31.952
35.255,31.943
35.143,31.941
35.032,31.947
34.921,31.966
34.811,32.001
34.702,32.058
34.594,32.144
34.487,32.266
34.381,32.43
34.277,32.645
34.175,32.915
34.073,33.244
33.972,33.634
33.871,34.083
33.771,34.59
33.672,35.15
33.574,35.757
33.478,36.403
33.384,37.077
33.293,37.767
33.205,38.458
33.122,39.139
33.042,39.797
32.968,40.419
32.899,40.995
32.835,41.518
32.777,41.978
32.724,42.373
32.675,42.698
32.632,42.955
32.592,43.142
32.556,43.265
32.522,43.326
32.491,43.331
32.462,43.286
32.434,43.197
32.408,43.071
32.383,42.914
32.36,42.733
32.338,42.532
32.318,42.317
32.3,42.094
32.283,41.866
32.267,41.635
32.252,41.404
32.237,41.174
32.223,40.944
32.209,40.717
32.196,40.49
32.184,40.264
32.173,40.037
32.163,39.811
32.155,39.584
32.15,39.356
32.148,39.128
32.149,38.898
32.154,38.667
32.163,38.435
32.179,38.202
32.202,37.969
32.235,37.736
32.282,37.504
32.346,37.273
32.433,37.044
32.549,36.816
32.701,36.59
32.896,36.367
33.141,36.144
33.44,35.923
33.798,35.704
34.214,35.487
34.69,35.275
35.219,35.067
35.798,34.866
36.417,34.672
37.068,34.485
37.738,34.306
38.415,34.137
39.086,33.98
39.738,33.835
40.359,33.704
40.937,33.586
41.463,33.483
41.929,33.395
42.331,33.323
42.663,33.266
42.925,33.225
43.117,33.201
43.243,33.191
43.306,33.197
43.312,33.216
43.266,33.248
43.175,33.29
43.046,33.341
42.884,33.4
42.698,33.466
42.492,33.537
42.272,33.612
42.044,33.69
41.809,33.769
41.573,33.849
41.336,33.928
41.1,34.005
40.866,34.081
40.634,34.153
40.407,34.224
40.184,34.291
39.965,34.356
39.75,34.417
39.54,34.475
39.334,34.528
39.132,34.575
38.932,34.618
38.737,34.655
38.545,34.687
38.356,34.713
38.171,34.733
37.99,34.749
37.813,34.759
37.64,34.764
37.471,34.765
37.307,34.761
37.146,34.754
36.988,34.742
36.832,34.727
36.677,34.708
36.525,34.686
36.372,34.661
36.221,34.633
36.07,34.602
35.921,34.569
35.773,34.532
35.627,34.493
35.484,34.45
35.345,34.403
35.214,34.353
35.091,34.301
34.979,34.246
34.878,34.189
34.792,34.129
34.72,34.068
34.665,34.004
34.626,33.939
34.605,33.871
34.603,33.804
34.617,33.736
34.649,33.67
34.696,33.604
34.757,33.54
34.83,33.477
34.914,33.414
35.005,33.353
35.102,33.293
35.203,33.234
35.306,33.177
35.409,33.121
35.511,33.067
35.61,33.014
35.705,32.961
35.794,32.908
35.877,32.857
35.951,32.807
36.017,32.76
36.073,32.717
36.118,32.676
36.153,32.639
36.177,32.605
36.189,32.573
36.19,32.543
36.179,32.515
36.158,32.488
36.125,32.465
36.083,32.443
36.032,32.424
35.973,32.406
35.907,32.391
35.835,32.377
35.756,32.366
35.672,32.357
35.583,32.351
35.49,32.348
35.393,32.348
35.293,32.348
35.191,32.348
35.088,32.346
34.983,32.342
34.878,32.335
34.774,32.327
34.668,32.316
34.563,32.303
34.457,32.289
34.352,32.274
34.245,32.259
34.139,32.244
34.033,32.231
33.928,32.221
33.824,32.217
33.724,32.22
33.626,32.235
33.532,32.265
33.441,32.315
33.353,32.39
33.268,32.495
33.187,32.638
33.107,32.823
33.028,33.059
32.953,33.349
32.879,33.699
32.808,34.11
32.741,34.58
32.677,35.106
32.616,35.683
32.56,36.301
32.51,36.952
32.465,37.624
32.425,38.307
32.391,38.987
32.363,39.653
32.339,40.291
32.32,40.891
32.306,41.442
32.294,41.935
32.285,42.365
32.278,42.727
32.273,43.02
32.269,43.243
32.267,43.397
32.268,43.486
32.272,43.513
32.279,43.484
32.288,43.407
32.299,43.286
32.313,43.13
32.329,42.945
32.347,42.737
32.365,42.513
32.383,42.276
32.4,42.031
32.417,41.781
32.432,41.528
32.444,41.274
32.455,41.02
32.463,40.769
32.469,40.519
32.472,40.272
32.473,40.028
32.473,39.785
32.471,39.543
32.47,39.301
32.472,39.061
32.48,38.82
32.496,38.58
32.524,38.338
32.569,38.097
32.636,37.856
32.73,37.616
32.858,37.376
33.026,37.138
33.24,36.902
33.506,36.667
33.828,36.435
34.207,36.206
34.643,35.98
35.134,35.759
35.675,35.543
36.259,35.333
36.878,35.128
37.52,34.929
38.173,34.737
38.825,34.554
39.463,34.38
40.075,34.219
40.65,34.071
41.178,33.938
41.653,33.82
42.068,33.719
42.419,33.635
42.703,33.568
42.919,33.518
43.068,33.485
43.153,33.468
43.178,33.466
43.149,33.48
43.07,33.509
42.951,33.554
42.795,33.614
42.611,33.689
42.405,33.778
42.183,33.879
41.949,33.991
41.709,34.112
41.465,34.238
41.221,34.37
40.978,34.505
40.739,34.644
40.503,34.785
40.273,34.926
40.049,35.065
39.83,35.201
39.618,35.33
39.411,35.453
39.211,35.566
39.017,35.669
38.827,35.761
38.642,35.84
38.461,35.907
38.285,35.96
38.114,35.999
37.948,36.026
37.786,36.042
37.629,36.046
37.476,36.041
37.328,36.026
37.183,36.001
37.041,35.968
36.901,35.927
36.763,35.877
36.626,35.819
36.489,35.754
36.352,35.681
36.214,35.603
36.074,35.52
35.934,35.433
35.794,35.345
35.655,35.256
35.519,35.166
35.386,35.074
35.258,34.98
35.137,34.885
35.024,34.791
34.923,34.697
34.835,34.605
34.762,34.516
34.706,34.429
34.666,34.345
34.644,34.263
34.638,34.184
34.65,34.108
34.678,34.034
34.721,33.962
34.777,33.892
34.844,33.823
34.922,33.755
35.007,33.688
35.097,33.623
35.19,33.559
35.284,33.496
35.38,33.433
35.475,33.372
35.569,33.309
35.66,33.245
35.745,33.18
35.823,33.114
35.892,33.047
35.951,32.981
35.998,32.917
36.035,32.854
36.062,32.794
36.078,32.737
36.086,32.682
36.085,32.63
36.076,32.579
36.06,32.53
36.036,32.482
36.004,32.437
35.966,32.394
35.92,32.354
35.868,32.316
35.809,32.283
35.744,32.253
35.672,32.23
35.593,32.216
35.51,32.213
35.422,32.228
35.329,32.264
35.233,32.329
35.134,32.428
35.032,32.567
34.928,32.754
34.822,32.992
34.713,33.287
34.603,33.641
34.491,34.052
34.379,34.519
34.267,35.039
34.154,35.602
34.043,36.2
33.934,36.821
33.828,37.458
33.724,38.099
33.625,38.734
33.53,39.354
33.44,39.947
33.354,40.506
33.274,41.022
33.197,41.487
33.125,41.896
33.056,42.245
32.989,42.532
32.925,42.757
32.863,42.92
32.802,43.024
32.743,43.072
32.687,43.068
32.632,43.018
32.579,42.927
32.529,42.802
32.481,42.647
32.435,42.469
32.391,42.272
32.351,42.061
32.314,41.84
32.282,41.611
32.253,41.379
32.23,41.145
32.212,40.911
32.199,40.678
32.191,40.446
32.187,40.216
32.188,39.989
32.194,39.765
32.203,39.544
32.213,39.324
32.223,39.107
32.234,38.89
32.244,38.674
32.253,38.458
32.26,38.243
32.265,38.028
32.268,37.813
32.269,37.599
32.268,37.386
32.267,37.174
32.265,36.964
32.262,36.754
32.259,36.545
32.256,36.336
32.253,36.129
32.251,35.924
32.25,35.722
32.253,35.524
32.259,35.33
32.273,35.143
32.296,34.963
32.333,34.791
32.388,34.629
32.466,34.479
32.575,34.34
32.719,34.213
32.906,34.099
33.141,33.999
33.428,33.913
33.77,33.842
34.168,33.789
34.622,33.753
35.129,33.735
35.682,33.733
36.273,33.747
36.893,33.776
37.529,33.818
38.17,33.874
38.802,33.941
39.413,34.02
39.991,34.109
40.524,34.205
41.004,34.309
41.423,34.417
41.777,34.529
42.062,34.643
42.277,34.757
42.425,34.87
42.506,34.982
42.525,35.091
42.487,35.195
42.399,35.295
42.266,35.388
42.097,35.474
41.896,35.551
41.672,35.617
41.43,35.673
41.174,35.717
40.91,35.751
40.641,35.773
40.369,35.784
40.098,35.785
39.827,35.777
39.557,35.759
39.288,35.733
39.021,35.7
38.754,35.66
38.489,35.614
38.224,35.563
37.96,35.507
37.696,35.448
37.432,35.384
37.169,35.317
36.907,35.247
36.647,35.174
36.39,35.099
36.138,35.021
35.889,34.941
35.644,34.86
35.404,34.776
35.168,34.69
34.937,34.602
34.712,34.512
34.491,34.419
34.274,34.325
34.061,34.23
33.85,34.135
33.642,34.041
33.436,33.947
33.233,33.856
33.032,33.767
32.835,33.682
32.641,33.602
32.452,33.525
32.269,33.452
32.094,33.382
31.93,33.317
31.778,33.254
31.639,33.195
31.516,33.14
31.409,33.088
31.322,33.039
31.256,32.991
31.212,32.944
31.191,32.898
31.193,32.85
31.219,32.802
31.268,32.753
31.341,32.704
31.436,32.655
31.553,32.606
31.689,32.558
31.842,32.512
32.009,32.468
32.188,32.425
32.375,32.384
32.567,32.345
32.762,32.307
32.957,32.27
33.15,32.233
33.339,32.198
33.521,32.163
33.695,32.13
33.859,32.098
34.011,32.067
34.149,32.038
34.273,32.012
34.382,31.991
34.477,31.977
34.556,31.972
34.621,31.979
34.671,32.002
34.708,32.045
34.731,32.115
34.744,32.217
34.746,32.359
34.739,32.547
34.725,32.789
34.705,33.089
34.68,33.45
34.651,33.874
34.62,34.357
34.586,34.893
34.55,35.478
34.512,36.103
34.472,36.76
34.429,37.44
34.384,38.131
34.337,38.822
34.288,39.503
34.237,40.159
34.185,40.781
34.133,41.356
34.079,41.877
34.026,42.335
33.974,42.726
33.923,43.046
33.876,43.296
33.832,43.476
33.793,43.59
33.759,43.642
33.729,43.638
33.702,43.583
33.679,43.485
33.659,43.35
33.642,43.186
33.628,42.999
33.616,42.794
33.605,42.577
33.595,42.351
33.585,42.121
33.577,41.888
33.569,41.656
33.563,41.426
33.558,41.198
33.555,40.974
33.552,40.753
33.549,40.535
33.545,40.319
33.539,40.105
33.531,39.893
33.519,39.682
33.504,39.473
33.485,39.264
33.464,39.055
33.439,38.846
33.411,38.638
33.381,38.43
33.35,38.223
33.317,38.017
33.284,37.812
33.25,37.609
33.216,37.408
33.182,37.21
33.148,37.014
33.113,36.82
33.077,36.63
33.04,36.441
33.003,36.256
32.965,36.073
32.929,35.894
32.892,35.72
32.857,35.55
32.822,35.386
32.789,35.229
32.758,35.077
32.728,34.932
32.7,34.797
32.674,34.672
32.652,34.559
32.636,34.459
32.627,34.374
32.629,34.304
32.644,34.25
32.677,34.212
32.733,34.191
32.817,34.187
32.936,34.198
33.096,34.224
33.302,34.264
33.56,34.316
33.873,34.379
34.242,34.451
34.67,34.532
35.153,34.619
35.686,34.712
36.264,34.809
36.876,34.908
37.514,35.009
38.164,35.111
38.815,35.212
39.452,35.312
40.065,35.409
40.64,35.502
41.17,35.589
41.643,35.67
42.053,35.743
42.396,35.807
42.669,35.862
42.873,35.906
43.007,35.939
43.077,35.961
43.087,35.971
43.043,35.971
42.952,35.961
42.819,35.94
42.652,35.911
42.457,35.872
42.24,35.824
42.008,35.769
41.767,35.707
41.52,35.639
41.27,35.566
41.022,35.49
40.775,35.409
40.532,35.326
40.291,35.24
40.053,35.151
39.818,35.06
39.586,34.968
39.356,34.876
39.129,34.785
38.904,34.698
38.683,34.618
38.466,34.542
38.253,34.47
38.045,34.4
37.841,34.331
37.642,34.261
37.448,34.19
37.258,34.116
37.071,34.04
36.889,33.96
36.709,33.875
36.532,33.787
36.358,33.696
36.185,33.603
36.015,33.51
35.846,33.418
35.679,33.327
35.512,33.238
35.347,33.152
35.185,33.069
35.027,32.989
34.876,32.912
34.733,32.839
34.602,32.769
34.484,32.701
34.381,32.636
34.295,32.574
34.228,32.515
34.181,32.459
34.154,32.406
34.149,32.359
34.164,32.316
34.2,32.278
34.254,32.244
34.326,32.214
34.415,32.185
34.517,32.158
34.631,32.133
34.754,32.108
34.885,32.085
35.019,32.062
35.156,32.041
35.291,32.022
35.425,32.005
35.555,31.991
35.679,31.978
35.797,31.967
35.906,31.958
36.007,31.95
36.097,31.943
36.176,31.937
36.244,31.932
36.301,31.927
36.346,31.921
36.378,31.915
36.398,31.908
36.407,31.901
36.403,31.895
36.387,31.891
36.36,31.891
36.323,31.895
36.276,31.906
36.22,31.925
36.156,31.956
36.083,32.002
36.002,32.069
35.915,32.163
35.821,32.289
35.723,32.454
35.621,32.664
35.516,32.924
35.409,33.24
35.302,33.614
35.194,34.048
35.086,34.543
34.978,35.095
34.87,35.698
34.76,36.346
34.651,37.028
34.542,37.733
34.434,38.446
34.327,39.155
34.221,39.845
34.116,40.505
34.011,41.123
33.909,41.688
33.809,42.194
33.712,42.633
33.617,43.001
33.526,43.299
33.439,43.523
33.358,43.678
33.282,43.765
33.212,43.79
33.147,43.758
33.087,43.677
33.03,43.553
32.977,43.392
32.927,43.202
32.879,42.99
32.833,42.761
32.789,42.52
32.747,42.274
32.706,42.024
32.666,41.774
32.627,41.526
32.589,41.28
32.551,41.038
32.514,40.799
32.478,40.563
32.442,40.332
32.407,40.105
32.373,39.882
32.339,39.663
32.308,39.447
32.278,39.233
32.25,39.021
32.225,38.809
32.203,38.598
32.184,38.388
32.168,38.179
32.156,37.968
32.148,37.757
32.148,37.545
32.155,37.332
32.172,37.119
32.202,36.906
32.251,36.694
32.322,36.485
32.422,36.278
32.558,36.076
32.735,35.878
32.961,35.686
33.24,35.498
33.576,35.317
33.972,35.141
34.427,34.973
34.938,34.813
35.5,34.662
36.103,34.522
36.737,34.394
37.39,34.278
38.048,34.174
38.698,34.083
39.326,34.007
39.92,33.944
40.468,33.897
40.962,33.864
41.395,33.845
41.763,33.84
42.062,33.849
42.292,33.87
42.454,33.904
42.55,33.949
42.586,34.004
42.566,34.069
42.498,34.142
42.388,34.222
42.241,34.309
42.064,34.402
41.865,34.5
41.647,34.602
41.417,34.706
41.179,34.811
40.937,34.915
40.694,35.017
40.453,35.116
40.214,35.209
39.98,35.296
39.75,35.377
39.526,35.45
39.308,35.513
39.096,35.568
38.891,35.612
38.691,35.645
38.498,35.667
38.309,35.678
38.126,35.679
37.947,35.671
37.773,35.655
37.604,35.63
37.437,35.596
37.275,35.555
37.117,35.505
36.962,35.448
36.81,35.384
36.662,35.313
36.518,35.236
36.375,35.155
36.233,35.071
36.091,34.983
35.95,34.894
35.807,34.804
35.664,34.712
35.519,34.62
35.375,34.528
35.232,34.434
35.091,34.341
34.953,34.249
34.819,34.159
34.692,34.07
34.573,33.984
34.464,33.898
34.369,33.814
34.288,33.731
34.224,33.649
34.175,33.567
34.145,33.486
34.132,33.406
34.139,33.326
34.163,33.247
34.205,33.168
34.263,33.088
34.337,33.009
34.424,32.929
34.523,32.851
34.63,32.774
34.745,32.699
34.865,32.628
34.989,32.559
35.113,32.493
35.236,32.431
35.357,32.372
35.473,32.315
35.583,32.261
35.685,32.207
35.779,32.155
35.864,32.105
35.937,32.056
35.998,32.008
36.046,31.962
36.08,31.917
36.1,31.874
36.107,31.835
36.101,31.799
36.084,31.766
36.055,31.738
36.015,31.713
35.966,31.693
35.906,31.677
35.838,31.665
35.763,31.656
35.681,31.649
35.594,31.645
35.501,31.642
35.405,31.641
35.304,31.641
35.2,31.641
35.093,31.642
34.985,31.641
34.875,31.641
34.764,31.639
34.652,31.637
34.539,31.635
34.426,31.632
34.313,31.63
34.201,31.627
34.091,31.626
33.985,31.626
33.881,31.626
33.781,31.626
33.683,31.627
33.588,31.628
33.495,31.629
33.405,31.631
33.318,31.634
33.234,31.639
33.152,31.647
33.074,31.66
33,31.681
32.932,31.712
32.869,31.758
32.811,31.825
32.759,31.917
32.712,32.042
32.669,32.206
32.629,32.415
32.592,32.677
32.557,32.995
32.525,33.373
32.493,33.813
32.462,34.314
32.43,34.873
32.398,35.485
32.365,36.141
32.333,36.831
32.3,37.544
32.269,38.267
32.238,38.988
32.208,39.692
32.181,40.368
32.156,41.003
32.133,41.589
32.113,42.118
32.096,42.581
32.082,42.975
32.074,43.297
32.072,43.546
32.077,43.724
32.093,43.836
32.123,43.885
32.171,43.878
32.241,43.818
32.34,43.713
32.473,43.569
32.646,43.391
32.866,43.186
33.138,42.959
33.465,42.715
33.851,42.458
34.298,42.191
34.802,41.92
35.359,41.645
35.962,41.37
36.6,41.096
37.259,40.825
37.927,40.559
38.591,40.298
39.236,40.041
39.85,39.79
40.42,39.544
40.937,39.301
41.392,39.061
41.781,38.825
42.099,38.591
42.346,38.36
42.522,38.131
42.632,37.904
42.68,37.679
42.669,37.455
42.607,37.233
42.5,37.013
42.355,36.794
42.179,36.578
41.979,36.363
41.761,36.152
41.53,35.944
41.292,35.74
41.049,35.539
40.806,35.344
40.564,35.154
40.325,34.971
40.091,34.797
39.862,34.632
39.637,34.478
39.417,34.335
39.201,34.205
38.989,34.088
38.782,33.986
38.578,33.9
38.38,33.831
38.186,33.779
37.997,33.745
37.813,33.728
37.635,33.728
37.463,33.745
37.296,33.776
37.136,33.822
36.981,33.882
36.831,33.954
36.686,34.039
36.546,34.135
36.409,34.242
36.275,34.357
36.142,34.48
36.011,34.609
35.88,34.741
35.747,34.875
35.613,35.008
35.477,35.139
35.339,35.266
35.199,35.388
35.059,35.504
34.921,35.613
34.788,35.713
34.661,35.803
34.542,35.882
34.434,35.949
34.34,36.004
34.26,36.045
34.197,36.074
34.152,36.092
34.125,36.097
34.116,36.092
34.125,36.076
34.151,36.05
34.192,36.015
34.248,35.97
34.316,35.918
34.395,35.858
34.485,35.793
34.584,35.721
34.689,35.645
34.799,35.565
34.912,35.481
35.025,35.394
35.138,35.304
35.247,35.212
35.35,35.117
35.446,35.021
35.533,34.923
35.61,34.824
35.676,34.723
35.73,34.622
35.771,34.522
35.799,34.423
35.815,34.326
35.818,34.23
35.809,34.136
35.789,34.043
35.758,33.952
35.718,33.863
35.668,33.777
35.61,33.693
35.543,33.611
35.469,33.53
35.389,33.451
35.302,33.373
35.21,33.297
35.112,33.222
35.009,33.15
34.903,33.079
34.793,33.01
34.682,32.944
34.568,32.881
34.454,32.82
34.34,32.763
34.227,32.709
34.115,32.657
34.005,32.608
33.897,32.56
33.792,32.514
33.69,32.469
33.591,32.425
33.495,32.383
33.401,32.344
33.309,32.307
33.219,32.272
33.132,32.239
33.046,32.208
32.962,32.18
32.88,32.155
32.8,32.131
32.723,32.11
32.649,32.091
32.579,32.074
32.513,32.059
32.45,32.044
32.39,32.03
32.333,32.017
32.278,32.004
32.225,31.99
32.175,31.977
32.126,31.963
32.079,31.951
32.034,31.941
31.989,31.935
31.946,31.935
31.904,31.943
31.863,31.961
31.824,31.995
31.785,32.047
31.749,32.125
31.715,32.234
31.684,32.381
31.658,32.573
31.638,32.816
31.627,33.116
31.627,33.476
31.641,33.898
31.673,34.381
31.727,34.921
31.809,35.512
31.925,36.147
32.082,36.816
32.284,37.509
32.538,38.216
32.848,38.925
33.217,39.622
33.645,40.293
34.131,40.927
34.671,41.513
35.258,42.041
35.884,42.505
36.537,42.898
37.204,43.219
37.872,43.466
38.527,43.641
39.156,43.747
39.748,43.788
40.292,43.771
40.778,43.701
41.2,43.585
41.555,43.431
41.838,43.247
42.049,43.037
42.19,42.808
42.264,42.566
42.277,42.315
42.235,42.059
42.145,41.8
42.014,41.542
41.851,41.286
41.661,41.034
41.452,40.787
41.228,40.544
40.995,40.306
40.756,40.072
40.514,39.842
40.272,39.615
40.032,39.39
39.795,39.168
39.561,38.947
39.333,38.728
39.108,38.509
38.889,38.291
38.676,38.073
38.468,37.856
38.266,37.639
38.07,37.422
37.879,37.207
37.693,36.993
37.512,36.78
37.335,36.569
37.162,36.359
36.993,36.151
36.826,35.945
36.661,35.742
36.497,35.543
36.334,35.348
36.172,35.159
36.01,34.976
35.847,34.8
35.685,34.635
35.521,34.482
35.358,34.342
35.195,34.217
35.033,34.108
34.872,34.015
34.716,33.937
34.565,33.876
34.421,33.829
34.285,33.798
34.158,33.781
34.044,33.78
33.945,33.793
33.86,33.818
33.792,33.857
33.74,33.907
33.706,33.968
33.689,34.041
33.69,34.124
33.708,34.217
33.744,34.319
33.795,34.428
33.861,34.543
33.938,34.662
34.027,34.784
34.124,34.907
34.228,35.029
34.338,35.15
34.452,35.267
34.568,35.379
34.684,35.483
34.798,35.578
34.91,35.663
35.017,35.735
35.118,35.795
35.212,35.842
35.298,35.875
35.374,35.896
35.441,35.904
35.497,35.9
35.541,35.884
35.575,35.858
35.596,35.822
35.606,35.777
35.605,35.724
35.593,35.663
35.57,35.596
35.536,35.523
35.492,35.447
35.439,35.368
35.377,35.286
35.307,35.203
35.23,35.118
35.147,35.031
35.057,34.943
34.962,34.853
34.861,34.763
34.756,34.672
34.649,34.581
34.54,34.489
34.43,34.396
34.319,34.302
34.21,34.206
34.102,34.111
33.997,34.015
33.895,33.919
33.797,33.825
33.701,33.731
33.609,33.639
33.52,33.548
33.433,33.459
33.349,33.371
33.267,33.285
33.187,33.2
33.11,33.117
33.035,33.036
32.962,32.958
32.892,32.881
32.824,32.808
32.758,32.738
32.695,32.671
32.635,32.608
32.577,32.547
32.52,32.489
32.465,32.433
32.411,32.378
32.359,32.325
32.31,32.273
32.263,32.222
32.219,32.172
32.178,32.124
32.14,32.078
32.104,32.033
32.07,31.991
32.036,31.952
32.004,31.916
31.972,31.884
31.94,31.855
31.909,31.83
31.878,31.807
31.848,31.788
31.818,31.773
31.789,31.761
31.763,31.752
31.74,31.746
31.722,31.742
31.711,31.74
31.706,31.739
31.712,31.738
31.73,31.737
31.762,31.735
31.815,31.732
31.894,31.729
32.004,31.724
32.151,31.719
32.341,31.712
32.581,31.705
32.875,31.698
33.226,31.691
33.635,31.683
34.102,31.676
34.621,31.67
35.188,31.665
35.793,31.664
36.427,31.669
37.078,31.685
37.734,31.714
38.379,31.763
39.002,31.838
39.588,31.943
40.128,32.086
40.611,32.274
41.03,32.512
41.38,32.808
41.658,33.164
41.864,33.584
42,34.067
42.069,34.612
42.077,35.213
42.03,35.864
41.934,36.554
41.796,37.274
41.625,38.011
41.426,38.752
41.205,39.485
40.97,40.197
40.725,40.876
40.475,41.509
40.224,42.088
39.973,42.606
39.726,43.056
39.484,43.434
39.246,43.74
39.014,43.973
38.787,44.134
38.566,44.229
38.351,44.261
38.142,44.237
37.939,44.163
37.742,44.046
37.549,43.892
37.359,43.709
37.173,43.502
36.988,43.277
36.806,43.038
36.625,42.79
36.446,42.537
36.266,42.282
36.086,42.026
35.907,41.772
35.728,41.522
35.55,41.275
35.373,41.032
35.197,40.793
35.023,40.558
34.85,40.327
34.68,40.101
34.514,39.878
34.353,39.659
34.199,39.441
34.053,39.225
33.916,39.01
33.79,38.796
33.676,38.583
33.575,38.372
33.489,38.161
33.42,37.952
33.369,37.743
33.337,37.536
33.326,37.331
33.334,37.129
33.362,36.93
33.409,36.733
33.474,36.539
33.554,36.346
33.649,36.155
33.755,35.968
33.87,35.785
33.993,35.607
34.122,35.436
34.255,35.273
34.388,35.119
34.521,34.975
34.651,34.84
34.778,34.717
34.899,34.607
35.014,34.509
35.12,34.425
35.217,34.354
35.303,34.298
35.376,34.255
35.436,34.225
35.481,34.21
35.512,34.208
35.529,34.22
35.532,34.245
35.521,34.284
35.497,34.334
35.459,34.396
35.409,34.468
35.349,34.548
35.28,34.637
35.203,34.733
35.121,34.834
35.034,34.939
34.944,35.047
34.851,35.156
34.757,35.263
34.662,35.367
34.566,35.467
34.469,35.562
34.371,35.65
34.273,35.729
34.175,35.799
34.078,35.859
33.982,35.909
33.887,35.948
33.793,35.977
33.699,35.995
33.608,36.002
33.517,35.999
33.429,35.985
33.341,35.959
33.255,35.922
33.171,35.875
33.087,35.819
33.004,35.755
32.922,35.683
32.84,35.605
32.758,35.521
32.678,35.432
32.6,35.339
32.524,35.244
32.451,35.147
32.382,35.048
32.316,34.947
32.255,34.846
32.2,34.746
32.15,34.646
32.106,34.547
32.066,34.45
32.03,34.354
31.999,34.257
31.971,34.162
31.945,34.067
31.922,33.973
31.901,33.88
31.883,33.79
31.868,33.701
31.855,33.615
31.844,33.53
31.835,33.447
31.829,33.366
31.826,33.286
31.826,33.206
31.83,33.128
31.836,33.05
31.845,32.972
31.856,32.894
31.869,32.817
31.882,32.742
31.896,32.67
31.91,32.6
31.922,32.533
31.934,32.469
31.944,32.407
31.951,32.348
31.954,32.291
31.952,32.235
31.945,32.181
31.933,32.128
31.918,32.077
31.9,32.027
31.882,31.98
31.866,31.936
31.855,31.895
31.851,31.858
31.859,31.824
31.88,31.794
31.92,31.765
31.981,31.738
32.07,31.713
32.191,31.689
32.351,31.666
32.554,31.644
32.807,31.624
33.113,31.605
33.477,31.587
33.898,31.57
34.375,31.554
34.905,31.54
35.482,31.528
36.095,31.519
36.734,31.514
37.386,31.512
38.037,31.514
38.675,31.518
39.285,31.526
39.855,31.535
40.375,31.545
40.836,31.555
41.23,31.565
41.552,31.574
41.8,31.583
41.976,31.589
42.082,31.594
42.121,31.599
42.101,31.603
42.027,31.607
41.908,31.612
41.751,31.617
41.563,31.624
41.35,31.633
41.119,31.644
40.874,31.658
40.62,31.678
40.361,31.706
40.099,31.746
39.836,31.802
39.574,31.88
39.313,31.986
39.055,32.126
38.801,32.308
38.55,32.537
38.304,32.821
38.064,33.163
37.829,33.566
37.6,34.032
37.376,34.558
37.159,35.141
36.948,35.776
36.744,36.454
36.545,37.164
36.353,37.896
36.165,38.636
35.983,39.371
35.804,40.088
35.629,40.776
35.455,41.422
35.282,42.017
35.109,42.551
34.936,43.019
34.765,43.417
34.594,43.741
34.426,43.993
34.26,44.174
34.1,44.285
33.946,44.333
33.801,44.322
33.666,44.26
33.544,44.152
33.437,44.007
33.347,43.829
33.274,43.624
33.221,43.399
33.187,43.158
33.174,42.906
33.182,42.648
33.21,42.386
33.258,42.123
33.324,41.859
33.407,41.597
33.505,41.337
33.616,41.078
33.739,40.821
33.872,40.566
34.011,40.313
34.156,40.063
34.303,39.815
34.451,39.571
34.599,39.33
34.744,39.091
34.884,38.855
35.018,38.622
35.143,38.392
35.257,38.166
35.359,37.945
35.448,37.727
35.523,37.513
35.584,37.301
35.631,37.091
35.663,36.883
35.682,36.676
35.687,36.472
35.679,36.27
35.659,36.07
35.627,35.874
35.585,35.683
35.533,35.497
35.471,35.319
35.401,35.148
35.321,34.986
35.233,34.834
35.139,34.694
35.038,34.565
34.931,34.448
34.82,34.344
34.706,34.254
34.591,34.176
34.475,34.111
34.36,34.06
34.247,34.023
34.135,34
34.026,33.992
33.918,33.999
33.813,34.019
33.71,34.053
33.61,34.099
33.513,34.156
33.417,34.225
33.324,34.304
33.233,34.393
33.142,34.491
33.053,34.596
32.965,34.708
32.879,34.824
32.797,34.944
32.718,35.065
32.643,35.185
32.57,35.304
32.5,35.417
32.432,35.525
32.366,35.625
32.303,35.715
32.243,35.794
32.185,35.861
32.131,35.915
32.081,35.955
32.036,35.982
31.996,35.995
31.96,35.996
31.928,35.986
31.901,35.964
31.876,35.93
31.855,35.886
31.836,35.832
31.818,35.769
31.802,35.699
31.788,35.62
31.776,35.535
31.765,35.444
31.758,35.346
31.752,35.243
31.75,35.134
31.75,35.021
31.753,34.904
31.758,34.785
31.766,34.665
31.776,34.544
31.787,34.425
31.798,34.309
31.808,34.195
31.817,34.086
31.825,33.982
31.832,33.882
31.837,33.789
31.84,33.701
31.841,33.619
31.84,33.542
31.84,33.468
31.838,33.396
31.837,33.327
31.837,33.259
31.839,33.192
31.844,33.124
31.856,33.056
31.875,32.988
31.906,32.918
31.953,32.848
32.021,32.778
32.115,32.709
32.241,32.64
32.405,32.572
32.614,32.505
32.872,32.44
33.183,32.377
33.549,32.315
33.972,32.256
34.448,32.199
34.975,32.145
35.545,32.094
36.15,32.046
36.78,32.001
37.423,31.959
38.065,31.92
38.693,31.883
39.294,31.849
39.855,31.817
40.365,31.785
40.815,31.754
41.2,31.724
41.513,31.695
41.754,31.668
41.922,31.642
42.02,31.619
42.052,31.598
42.021,31.58
41.935,31.566
41.8,31.554
41.622,31.545
41.408,31.538
41.166,31.534
40.9,31.533
40.616,31.534
40.32,31.538
40.015,31.545
39.706,31.553
39.393,31.564
39.079,31.576
38.767,31.589
38.457,31.604
38.151,31.619
37.848,31.635
37.548,31.652
37.251,31.668
36.957,31.683
36.667,31.697
36.38,31.709
36.098,31.719
35.821,31.729
35.549,31.737
35.282,31.744
35.021,31.751
34.765,31.756
34.513,31.76
34.268,31.763
34.027,31.764
33.791,31.764
33.56,31.764
33.334,31.762
33.113,31.76
32.896,31.758
32.685,31.755
32.479,31.753
32.279,31.753
32.087,31.756
31.904,31.762
31.734,31.774
31.578,31.795
31.438,31.829
31.316,31.88
31.214,31.953
31.136,32.055
31.082,32.192
31.055,32.372
31.055,32.601
31.084,32.886
31.142,33.232
31.23,33.641
31.345,34.114
31.488,34.65
31.656,35.245
31.847,35.892
32.059,36.582
32.29,37.304
32.535,38.046
32.791,38.794
33.055,39.536
33.323,40.258
33.591,40.949
33.856,41.597
34.114,42.191
34.364,42.723
34.601,43.187
34.824,43.58
35.031,43.9
35.221,44.146
35.392,44.321
35.544,44.428
35.676,44.471
35.787,44.456
35.879,44.389
35.951,44.276
36.004,44.123
36.037,43.937
36.052,43.723
36.049,43.488
36.03,43.237
35.996,42.975
35.947,42.706
35.881,42.433
35.799,42.156
35.703,41.878
35.597,41.6
35.483,41.323
35.364,41.047
35.244,40.774
35.124,40.504
35.008,40.236
34.896,39.973
34.789,39.713
34.688,39.457
34.591,39.204
34.498,38.956
34.407,38.71
34.318,38.469
34.23,38.231
34.141,37.998
34.052,37.769
33.962,37.545
33.87,37.326
33.779,37.111
33.686,36.9
33.594,36.694
33.502,36.492
33.411,36.293
33.32,36.098
33.229,35.905
33.14,35.715
33.054,35.529
32.969,35.346
32.886,35.168
32.806,34.998
32.73,34.835
32.658,34.683
32.589,34.542
32.526,34.412
32.467,34.296
32.412,34.195
32.361,34.109
32.314,34.04
32.269,33.987
32.227,33.95
32.187,33.929
32.15,33.924
32.115,33.934
32.082,33.959
32.052,33.998
32.025,34.051
32.001,34.114
31.979,34.188
31.96,34.27
31.942,34.359
31.928,34.454
31.915,34.556
31.906,34.662
31.899,34.772
31.895,34.883
31.894,34.994
31.896,35.104
31.902,35.21
31.912,35.311
31.928,35.408
31.951,35.497
31.984,35.579
32.031,35.653
32.096,35.718
32.186,35.774
32.306,35.821
32.463,35.857
32.663,35.883
32.911,35.897
33.213,35.901
33.571,35.894
33.985,35.876
34.455,35.848
34.977,35.811
35.545,35.764
36.151,35.709
36.787,35.644
37.441,35.571
38.1,35.49
38.753,35.403
39.385,35.311
39.986,35.214
40.543,35.115
41.045,35.013
41.486,34.91
41.859,34.806
42.16,34.703
42.388,34.599
42.544,34.495
42.63,34.391
42.652,34.287
42.615,34.182
42.527,34.077
42.395,33.971
42.227,33.866
42.028,33.761
41.805,33.657
41.565,33.555
41.311,33.454
41.05,33.355
40.783,33.257
40.514,33.16
40.245,33.065
39.977,32.971
39.712,32.88
39.449,32.792
39.189,32.708
38.932,32.627
38.677,32.549
38.425,32.475
38.174,32.403
37.926,32.333
37.68,32.265
37.436,32.2
37.196,32.137
36.959,32.077
36.724,32.018
36.492,31.961
36.262,31.906
36.035,31.852
35.809,31.8
35.585,31.75
35.363,31.703
35.144,31.659
34.927,31.618
34.715,31.579
34.507,31.543
34.305,31.508
34.112,31.475
33.927,31.443
33.754,31.414
33.594,31.386
33.449,31.361
33.321,31.34
33.212,31.32
33.123,31.304
33.053,31.291
33.004,31.281
32.975,31.275
32.968,31.272
32.981,31.273
33.015,31.279
33.069,31.288
33.141,31.3
33.23,31.315
33.336,31.331
33.455,31.347
33.587,31.364
33.731,31.38
33.885,31.397
34.047,31.413
34.215,31.429
34.387,31.444
34.56,31.459
34.731,31.472
34.898,31.483
35.057,31.491
35.208,31.497
35.348,31.501
35.475,31.503
35.589,31.504
35.688,31.503
35.772,31.501
35.842,31.497
35.896,31.493
35.935,31.489
35.959,31.487
35.969,31.489
35.966,31.496
35.949,31.513
35.92,31.541
35.881,31.585
35.831,31.649
35.772,31.738
35.704,31.857
35.628,32.014
35.545,32.217
35.456,32.472
35.362,32.784
35.264,33.158
35.163,33.595
35.06,34.095
34.957,34.654
34.853,35.267
34.75,35.926
34.647,36.622
34.544,37.344
34.443,38.079
34.344,38.814
34.245,39.538
34.148,40.236
34.051,40.898
33.955,41.515
33.858,42.077
33.761,42.578
33.665,43.011
33.571,43.375
33.478,43.668
33.387,43.891
33.299,44.045
33.214,44.134
33.133,44.162
33.055,44.133
32.981,44.055
32.909,43.933
32.84,43.773
32.774,43.582
32.709,43.366
32.647,43.129
32.587,42.876
32.528,42.61
32.471,42.335
32.416,42.053
32.362,41.765
32.309,41.475
32.257,41.183
32.205,40.891
32.153,40.601
32.099,40.313
32.045,40.029
31.989,39.749
31.933,39.474
31.877,39.202
31.823,38.936
31.772,38.675
31.725,38.419
31.686,38.168
31.657,37.922
31.641,37.681
31.641,37.444
31.662,37.211
31.708,36.981
31.784,36.755
31.896,36.532
32.049,36.313
32.249,36.099
32.502,35.889
32.81,35.684
33.179,35.484
33.608,35.291
34.096,35.103
34.639,34.923
35.231,34.751
35.862,34.588
36.522,34.434
37.197,34.289
37.876,34.154
38.544,34.031
39.189,33.919
39.798,33.822
40.361,33.738
40.869,33.669
41.315,33.615
41.695,33.576
42.004,33.553
42.243,33.545
42.411,33.553
42.512,33.577
42.549,33.616
42.528,33.669
42.456,33.735
42.338,33.811
42.183,33.896
41.998,33.989
41.789,34.09
41.564,34.199
41.326,34.316
41.081,34.44
40.832,34.571
40.581,34.708
40.331,34.849
40.083,34.99
39.838,35.131
39.598,35.268
39.362,35.399
39.129,35.524
38.901,35.639
38.676,35.743
38.455,35.836
38.237,35.916
38.022,35.982
37.811,36.034
37.602,36.071
37.396,36.092
37.193,36.099
36.993,36.093
36.795,36.074
36.601,36.044
36.408,36.005
36.217,35.956
36.029,35.898
35.842,35.832
35.657,35.759
35.474,35.679
35.292,35.593
35.113,35.503
34.937,35.41
34.767,35.315
34.602,35.216
34.444,35.116
34.293,35.015
34.151,34.912
34.019,34.81
33.899,34.707
33.794,34.605
33.703,34.505
33.628,34.406
33.571,34.309
33.532,34.213
33.51,34.12
33.507,34.03
33.522,33.942
33.554,33.856
33.603,33.771
33.668,33.687
33.748,33.604
33.841,33.521
33.945,33.438
34.059,33.354
34.182,33.269
34.312,33.184
34.446,33.099
34.583,33.015
34.719,32.933
34.853,32.854
34.983,32.779
35.106,32.709
35.222,32.645
35.329,32.586
35.426,32.534
35.511,32.488
35.585,32.446
35.646,32.407
35.694,32.371
35.728,32.335
35.75,32.3
35.759,32.266
35.756,32.231
35.742,32.195
35.717,32.161
35.681,32.126
35.637,32.093
35.583,32.06
35.522,32.027
35.452,31.994
35.376,31.96
35.293,31.926
35.204,31.891
35.11,31.856
35.012,31.822
34.911,31.789
34.808,31.758
34.704,31.73
34.599,31.706
34.494,31.686
34.388,31.674
34.283,31.67
34.178,31.677
34.074,31.699
33.971,31.739
33.869,31.802
33.768,31.894
33.667,32.021
33.567,32.189
33.469,32.405
33.372,32.673
33.277,32.996
33.186,33.379
33.097,33.821
33.01,34.323
32.928,34.882
32.848,35.491
32.773,36.143
32.701,36.828
32.631,37.536
32.565,38.255
32.501,38.97
32.44,39.668
32.381,40.338
32.325,40.97
32.271,41.553
32.22,42.081
32.171,42.547
32.126,42.947
32.083,43.278
32.042,43.541
32.002,43.736
31.965,43.867
31.93,43.935
31.896,43.947
31.862,43.907
31.829,43.821
31.795,43.695
31.763,43.534
31.733,43.344
31.705,43.131
31.679,42.898
31.658,42.651
31.643,42.394
31.637,42.131
31.642,41.865
31.661,41.597
31.7,41.329
31.763,41.064
31.856,40.801
31.986,40.542
32.16,40.287
32.385,40.035
32.666,39.787
33.007,39.543
33.411,39.303
33.878,39.067
34.405,38.832
34.986,38.599
35.612,38.369
36.272,38.14
36.953,37.912
37.641,37.686
38.321,37.461
38.979,37.237
39.603,37.015
40.179,36.794
40.699,36.575
41.154,36.357
41.539,36.141
41.851,35.927
42.089,35.717
42.253,35.51
42.349,35.308
42.379,35.113
42.351,34.923
42.271,34.742
42.149,34.568
41.989,34.404
41.799,34.252
41.586,34.114
41.356,33.99
41.115,33.883
40.866,33.791
40.615,33.717
40.365,33.659
40.122,33.617
39.887,33.591
39.661,33.58
39.443,33.586
39.232,33.607
39.025,33.643
38.82,33.694
38.615,33.759
38.411,33.837
38.205,33.926
37.997,34.024
37.789,34.132
37.579,34.246
37.369,34.366
37.16,34.489
36.954,34.615
36.751,34.742
36.553,34.869
36.359,34.995
36.169,35.116
35.983,35.233
35.801,35.342
35.623,35.443
35.448,35.534
35.276,35.613
35.107,35.682
34.941,35.739
34.779,35.784
34.62,35.817
34.465,35.838
34.315,35.846
34.171,35.842
34.036,35.825
33.909,35.797
33.794,35.76
33.691,35.714
33.603,35.661
33.53,35.601
33.473,35.533
33.436,35.459
33.417,35.378
33.417,35.291
33.435,35.2
33.47,35.105
33.522,35.007
33.59,34.907
33.672,34.805
33.766,34.703
33.872,34.6
33.987,34.497
34.111,34.396
34.239,34.297
34.372,34.201
34.505,34.107
34.637,34.015
34.767,33.926
34.892,33.838
35.01,33.753
35.12,33.669
35.221,33.588
35.311,33.508
35.39,33.428
35.457,33.349
35.51,33.27
35.551,33.191
35.578,33.113
35.592,33.036
35.593,32.961
35.583,32.889
35.562,32.819
35.532,32.751
35.493,32.685
35.445,32.621
35.39,32.56
35.329,32.501
35.262,32.446
35.191,32.394
35.116,32.346
35.037,32.301
34.955,32.261
34.87,32.223
34.782,32.188
34.691,32.154
34.598,32.12
34.502,32.088
34.405,32.056
34.306,32.024
34.206,31.993
34.105,31.962
34.003,31.932
33.901,31.904
33.799,31.876
33.696,31.85
33.593,31.825
33.49,31.801
33.389,31.779
33.291,31.758
33.194,31.737
33.101,31.717
33.01,31.698
32.923,31.68
32.839,31.664
32.76,31.652
32.686,31.645
32.617,31.647
32.552,31.661
32.49,31.69
32.433,31.739
32.378,31.813
32.325,31.919
32.274,32.063
32.224,32.253
32.176,32.493
32.129,32.789
32.084,33.145
32.04,33.564
31.997,34.046
31.957,34.59
31.92,35.191
31.885,35.844
31.851,36.538
31.821,37.263
31.793,38.005
31.768,38.753
31.746,39.492
31.727,40.209
31.71,40.894
31.694,41.534
31.68,42.119
31.667,42.641
31.654,43.095
31.643,43.477
31.631,43.785
31.621,44.02
31.612,44.185
31.604,44.282
31.599,44.316
31.598,44.294
31.603,44.22
31.617,44.103
31.643,43.948
31.684,43.762
31.748,43.551
31.841,43.322
31.971,43.08
32.144,42.829
32.367,42.573
32.646,42.316
32.986,42.059
33.388,41.805
33.853,41.554
34.378,41.307
34.957,41.065
35.582,40.827
36.241,40.594
36.922,40.365
37.611,40.139
38.293,39.916
38.953,39.696
39.578,39.479
40.154,39.265
40.672,39.053
41.124,38.844
41.504,38.636
41.81,38.43
42.04,38.226
42.197,38.024
42.285,37.824
42.308,37.624
42.272,37.426
42.186,37.227
42.056,37.028
41.889,36.83
41.693,36.633
41.474,36.436
41.238,36.241
40.991,36.049
40.738,35.859
40.482,35.672
40.228,35.49
39.976,35.314
39.729,35.146
39.488,34.989
39.251,34.843
39.019,34.71
38.793,34.59
38.571,34.485
38.352,34.394
38.136,34.318
37.922,34.256
37.71,34.209
37.499,34.177
37.29,34.16
37.083,34.157
36.88,34.169
36.679,34.194
36.482,34.231
36.288,34.281
36.097,34.341
35.91,34.412
35.725,34.491
35.544,34.578
35.365,34.67
35.189,34.767
35.014,34.866
34.841,34.966
34.669,35.067
34.499,35.167
34.333,35.265
34.171,35.359
34.016,35.447
33.868,35.529
33.73,35.604
33.604,35.67
33.492,35.727
33.396,35.775
33.319,35.815
33.262,35.846
33.224,35.868
33.208,35.881
33.211,35.884
33.234,35.876
33.276,35.858
33.334,35.829
33.407,35.788
33.49,35.736
33.58,35.672
33.677,35.597
33.78,35.513
33.89,35.42
34.007,35.321
34.13,35.217
34.258,35.11
34.391,35.001
34.526,34.893
34.66,34.787
34.793,34.684
34.922,34.585
35.045,34.49
35.159,34.4
35.262,34.314
35.352,34.234
35.429,34.157
35.492,34.082
35.541,34.009
35.575,33.937
35.597,33.866
35.607,33.795
35.604,33.724
35.59,33.652
35.564,33.579
35.528,33.504
35.482,33.427
35.428,33.349
35.365,33.269
35.296,33.188
35.22,33.107
35.138,33.027
35.051,32.947
34.958,32.869
34.86,32.794
34.759,32.722
34.654,32.655
34.547,32.592
34.439,32.535
34.329,32.483
34.218,32.436
34.108,32.393
33.996,32.355
33.884,32.319
33.772,32.287
33.66,32.256
33.549,32.228
33.439,32.201
33.332,32.175
33.227,32.15
33.125,32.126
33.026,32.104
32.931,32.084
32.84,32.066
32.752,32.05
32.668,32.034
32.587,32.018
32.508,32.001
32.431,31.981
32.356,31.959
32.284,31.934
32.213,31.906
32.144,31.878
32.078,31.849
32.015,31.821
31.955,31.795
31.898,31.772
31.846,31.753
31.797,31.74
31.753,31.734
31.713,31.739
31.678,31.756
31.648,31.789
31.622,31.843
31.6,31.923
31.58,32.035
31.564,32.185
31.549,32.379
31.536,32.624
31.525,32.925
31.515,33.286
31.507,33.71
31.499,34.196
31.492,34.743
31.486,35.345
31.48,35.994
31.476,36.682
31.472,37.395
31.468,38.122
31.465,38.85
31.462,39.565
31.459,40.255
31.456,40.909
31.453,41.517
31.451,42.069
31.45,42.559
31.45,42.982
31.452,43.335
31.457,43.618
31.467,43.831
31.483,43.976
31.509,44.058
31.547,44.08
31.602,44.048
31.68,43.969
31.787,43.849
31.931,43.693
32.117,43.508
32.354,43.3
32.646,43.075
32.997,42.836
33.409,42.59
33.882,42.337
34.414,42.083
34.998,41.827
35.627,41.573
36.291,41.321
36.976,41.072
37.667,40.827
38.351,40.585
39.012,40.348
39.637,40.115
40.213,39.887
40.73,39.663
41.18,39.442
41.557,39.224
41.858,39.008
42.082,38.793
42.231,38.581
42.308,38.37
42.319,38.162
42.268,37.954
42.164,37.747
42.014,37.54
41.827,37.332
41.611,37.123
41.374,36.914
41.123,36.706
40.861,36.5
40.595,36.296
40.327,36.095
40.06,35.896
39.796,35.699
39.536,35.507
39.281,35.32
39.03,35.139
38.785,34.966
38.545,34.803
38.31,34.65
38.079,34.509
37.852,34.381
37.629,34.267
37.409,34.168
37.192,34.084
36.976,34.015
36.763,33.962
36.552,33.923
36.342,33.899
36.135,33.888
35.93,33.891
35.728,33.906
35.529,33.935
35.332,33.975
35.139,34.028
34.949,34.09
34.762,34.162
34.58,34.24
34.401,34.324
34.228,34.412
34.059,34.503
33.897,34.596
33.742,34.689
33.597,34.782
33.462,34.872
33.339,34.959
33.229,35.042
33.136,35.12
33.061,35.192
33.005,35.258
32.969,35.317
32.954,35.366
32.96,35.406
32.987,35.435
33.034,35.453
33.099,35.458
33.182,35.453
33.28,35.438
33.392,35.414
33.515,35.381
33.648,35.341
33.788,35.293
33.935,35.239
34.087,35.18
34.243,35.114
34.4,35.044
34.558,34.968
34.713,34.89
34.863,34.809
35.007,34.727
35.142,34.643
35.267,34.559
35.382,34.474
35.484,34.388
35.574,34.303
35.65,34.217
35.711,34.13
35.757,34.044
35.788,33.957
35.805,33.87
35.807,33.782
35.797,33.694
35.773,33.605
35.737,33.516
35.691,33.427
35.636,33.338
35.573,33.25
35.502,33.162
35.425,33.074
35.343,32.986
35.256,32.898
35.166,32.812
35.073,32.728
34.978,32.647
34.88,32.569
34.78,32.495
34.677,32.423
34.572,32.355
34.465,32.29
34.357,32.227
34.249,32.167
34.141,32.11
34.034,32.056
33.929,32.005
33.825,31.957
33.724,31.911
33.623,31.868
33.525,31.828
33.429,31.79
33.335,31.754
33.242,31.721
33.153,31.689
33.066,31.658
32.981,31.628
32.899,31.6
32.819,31.574
32.743,31.549
32.669,31.526
32.599,31.505
32.534,31.485
32.472,31.468
32.415,31.452
32.362,31.438
32.313,31.426
32.269,31.414
32.23,31.404
32.195,31.395
32.165,31.386
32.14,31.378
32.117,31.371
32.098,31.365
32.081,31.36
32.066,31.357
32.054,31.355
32.043,31.354
32.034,31.354
32.025,31.353
32.016,31.35
32.008,31.347
31.999,31.341
31.989,31.333
31.98,31.324
31.971,31.312
31.964,31.299
31.956,31.283
31.949,31.267
31.943,31.251
31.937,31.238
31.933,31.229
31.929,31.228
31.926,31.24
31.924,31.27
31.924,31.323
31.925,31.404
31.929,31.521
31.937,31.679
31.953,31.884
31.981,32.142
32.025,32.457
32.09,32.832
32.182,33.27
32.308,33.769
32.475,34.327
32.688,34.941
32.953,35.602
33.275,36.302
33.654,37.028
34.091,37.769
34.583,38.511
35.126,39.24
35.712,39.944
36.33,40.61
36.97,41.226
37.618,41.786
38.259,42.28
38.88,42.706
39.467,43.059
40.01,43.339
40.498,43.548
40.925,43.688
41.285,43.763
41.575,43.778
41.795,43.738
41.946,43.65
42.032,43.519
42.056,43.354
42.024,43.159
41.942,42.94
41.817,42.703
41.655,42.452
41.463,42.191
41.249,41.925
41.019,41.655
40.777,41.383
40.529,41.112
40.278,40.843
40.027,40.576
39.778,40.312
39.531,40.055
39.289,39.804
39.052,39.559
38.818,39.319
38.589,39.082
38.362,38.848
38.138,38.615
37.915,38.384
37.692,38.153
37.47,37.923
37.249,37.695
37.03,37.468
36.812,37.244
36.597,37.02
36.385,36.798
36.176,36.578
35.97,36.359
35.766,36.142
35.564,35.929
35.364,35.72
35.165,35.518
34.967,35.321
34.772,35.132
34.579,34.952
34.39,34.78
34.206,34.619
34.028,34.467
33.857,34.327
33.696,34.199
33.546,34.083
33.409,33.979
33.288,33.889
33.183,33.812
33.098,33.75
33.032,33.702
32.987,33.67
32.963,33.654
32.96,33.653
32.977,33.669
33.014,33.701
33.069,33.751
33.141,33.816
33.229,33.896
33.33,33.99
33.443,34.097
33.567,34.215
33.701,34.342
33.843,34.476
33.991,34.614
34.145,34.755
34.301,34.897
34.459,35.037
34.615,35.174
34.767,35.305
34.913,35.428
35.052,35.54
35.182,35.64
35.301,35.728
35.407,35.804
35.5,35.867
35.58,35.916
35.646,35.951
35.698,35.972
35.735,35.979
35.757,35.973
35.764,35.953
35.758,35.923
35.74,35.881
35.711,35.831
35.672,35.772
35.627,35.707
35.574,35.636
35.515,35.561
35.451,35.482
35.381,35.4
35.307,35.315
35.229,35.227
35.145,35.137
35.057,35.044
34.963,34.95
34.865,34.854
34.762,34.756
34.655,34.658
34.546,34.558
34.436,34.457
34.324,34.356
34.213,34.255
34.102,34.155
33.993,34.056
33.885,33.96
33.779,33.865
33.676,33.772
33.576,33.68
33.479,33.591
33.385,33.503
33.293,33.418
33.205,33.336
33.12,33.257
33.039,33.182
32.961,33.109
32.886,33.041
32.814,32.976
32.745,32.915
32.678,32.858
32.613,32.803
32.55,32.75
32.489,32.699
32.43,32.649
32.374,32.6
32.319,32.553
32.267,32.506
32.217,32.461
32.169,32.418
32.123,32.377
32.08,32.337
32.04,32.3
32.003,32.265
31.97,32.233
31.939,32.205
31.911,32.179
31.885,32.156
31.861,32.136
31.838,32.118
31.816,32.102
31.795,32.088
31.774,32.076
31.754,32.066
31.735,32.058
31.716,32.052
31.697,32.048
31.679,32.044
31.662,32.043
31.646,32.044
31.633,32.051
31.624,32.065
31.621,32.091
31.625,32.132
31.641,32.193
31.672,32.279
31.721,32.394
31.795,32.546
31.9,32.739
32.043,32.98
32.228,33.274
32.463,33.624
32.751,34.033
33.098,34.501
33.503,35.025
33.967,35.601
34.486,36.22
35.054,36.875
35.664,37.555
36.305,38.249
36.963,38.944
37.626,39.63
38.28,40.294
38.912,40.925
39.509,41.512
40.06,42.046
40.557,42.52
40.993,42.929
41.362,43.269
41.661,43.54
41.891,43.741
42.053,43.874
42.149,43.943
42.184,43.953
42.162,43.909
42.091,43.817
41.976,43.682
41.826,43.512
41.646,43.311
41.445,43.086
41.228,42.841
41,42.582
40.764,42.311
40.525,42.034
40.286,41.751
40.053,41.467
39.827,41.182
39.608,40.898
39.396,40.616
39.189,40.337
38.984,40.061
38.781,39.786
38.579,39.514
38.376,39.245
38.173,38.979
37.969,38.717
37.764,38.459
37.56,38.206
37.356,37.957
37.153,37.713
36.952,37.473
36.752,37.237
36.555,37.003
36.362,36.772
36.172,36.543
35.987,36.317
35.806,36.094
35.629,35.876
35.457,35.663
35.29,35.457
35.126,35.259
34.965,35.07
34.807,34.891
34.653,34.723
34.503,34.568
34.358,34.426
34.218,34.299
34.086,34.187
33.963,34.091
33.85,34.011
33.749,33.949
33.66,33.903
33.585,33.875
33.525,33.865
33.481,33.871
33.455,33.892
33.447,33.929
33.458,33.981
33.487,34.047
33.535,34.127
33.6,34.218
33.679,34.321
33.773,34.433
33.881,34.554
34,34.681
34.128,34.813
34.265,34.949
34.406,35.086
34.551,35.222
34.693,35.355
34.828,35.483
34.955,35.605
35.073,35.717
35.182,35.819
35.279,35.909
35.367,35.987
35.445,36.052
35.513,36.103
35.571,36.141
35.619,36.165
35.656,36.176
35.683,36.172
35.699,36.156
35.705,36.128
35.7,36.09
35.685,36.042
35.661,35.985
35.626,35.921
35.583,35.849
35.533,35.77
35.475,35.685
35.411,35.594
35.341,35.498
35.265,35.398
35.184,35.295
35.1,35.19
35.011,35.085
34.919,34.98
34.825,34.876
34.728,34.774
34.63,34.674
34.53,34.576
34.43,34.481
34.33,34.387
34.229,34.297
34.13,34.21
34.031,34.127
33.932,34.047
33.833,33.971
33.734,33.898
33.636,33.827
33.539,33.758
33.442,33.689
33.346,33.621
33.252,33.554
33.16,33.487
33.071,33.42
32.985,33.353
32.902,33.287
32.823,33.221
32.748,33.157
32.676,33.093
32.608,33.03
32.545,32.968
32.485,32.908
32.43,32.85
32.38,32.795
32.334,32.742
32.293,32.692
32.255,32.644
32.221,32.598
32.188,32.554
32.158,32.512
32.13,32.47
32.105,32.429
32.082,32.389
32.063,32.349
32.046,32.309
32.032,32.269
32.02,32.23
32.009,32.194
32.001,32.16
31.993,32.132
31.988,32.11
31.985,32.095
31.983,32.091
31.982,32.099
31.983,32.123
31.985,32.167
31.988,32.236
31.991,32.337
31.994,32.475
31.996,32.656
31.997,32.885
31.998,33.163
31.998,33.495
31.998,33.882
31.999,34.323
32,34.815
32.004,35.354
32.012,35.934
32.027,36.545
32.053,37.178
32.093,37.82
32.154,38.462
32.24,39.091
32.359,39.698
32.516,40.271
32.719,40.802
32.972,41.284
33.28,41.71
33.646,42.078
34.07,42.383
34.551,42.626
35.085,42.808
35.664,42.931
36.278,42.997
36.917,43.011
37.569,42.978
38.219,42.901
38.856,42.786
39.465,42.637
40.036,42.461
40.557,42.261
41.02,42.044
41.419,41.813
41.749,41.572
42.009,41.324
42.198,41.072
42.321,40.818
42.38,40.563
42.382,40.309
42.332,40.057
42.237,39.804
42.104,39.552
41.94,39.3
41.751,39.05
41.543,38.8
41.322,38.551
41.091,38.303
40.855,38.055
40.618,37.808
40.381,37.561
40.148,37.313
39.919,37.066
39.695,36.819
39.475,36.573
39.261,36.328
39.05,36.083
38.843,35.839
38.639,35.598
38.439,35.358
38.242,35.123
38.048,34.891
37.856,34.666
37.666,34.45
37.479,34.243
37.296,34.047
37.116,33.866
36.939,33.7
36.766,33.55
36.597,33.416
36.429,33.301
36.264,33.203
36.101,33.125
35.94,33.065
35.78,33.025
35.621,33.003
35.465,33.001
35.311,33.017
35.158,33.052
35.008,33.105
34.861,33.177
34.719,33.265
34.584,33.369
34.457,33.486
34.341,33.616
34.237,33.754
34.148,33.899
34.074,34.05
34.017,34.205
33.977,34.36
33.956,34.515
33.952,34.667
33.966,34.815
33.996,34.957
34.043,35.09
34.103,35.213
34.176,35.324
34.261,35.421
34.357,35.504
34.461,35.572
34.572,35.624
34.69,35.662
34.811,35.685
34.936,35.694
35.06,35.689
35.184,35.672
35.304,35.643
35.418,35.603
35.526,35.555
35.626,35.497
35.716,35.433
35.795,35.361
35.863,35.283
35.917,35.2
35.959,35.114
35.988,35.024
36.003,34.932
36.006,34.838
35.997,34.744
35.977,34.649
35.949,34.555
35.913,34.462
35.869,34.368
35.82,34.275
35.766,34.182
35.707,34.089
35.644,33.996
35.577,33.903
35.506,33.811
35.43,33.718
35.35,33.623
35.265,33.526
35.177,33.428
35.085,33.33
34.991,33.235
34.894,33.143
34.795,33.056
34.695,32.974
34.594,32.899
34.493,32.832
34.391,32.771
34.288,32.715
34.186,32.663
34.084,32.616
33.984,32.571
33.885,32.528
33.788,32.487
33.694,32.448
33.602,32.409
33.512,32.37
33.423,32.331
33.336,32.292
33.25,32.252
33.167,32.213
33.087,32.175
33.01,32.139
32.935,32.104
32.865,32.07
32.799,32.036
32.736,32.003
32.677,31.972
32.623,31.943
32.572,31.918
32.525,31.9
32.48,31.893
32.437,31.9
32.395,31.926
32.356,31.974
32.32,32.05
32.286,32.161
32.257,32.311
32.232,32.508
32.211,32.755
32.194,33.06
32.183,33.423
32.175,33.846
32.172,34.329
32.172,34.868
32.175,35.456
32.181,36.086
32.188,36.749
32.196,37.432
32.203,38.124
32.21,38.813
32.216,39.488
32.221,40.138
32.225,40.753
32.228,41.32
32.231,41.83
32.233,42.275
32.235,42.652
32.237,42.957
32.239,43.189
32.242,43.351
32.245,43.444
32.249,43.473
32.254,43.445
32.26,43.366
32.267,43.242
32.276,43.081
32.29,42.889
32.309,42.672
32.335,42.439
32.372,42.194
32.423,41.942
32.493,41.688
32.588,41.433
32.713,41.18
32.876,40.929
33.081,40.682
33.335,40.441
33.64,40.204
34,39.973
34.414,39.746
34.881,39.523
35.396,39.302
35.953,39.082
36.543,38.863
37.153,38.644
37.773,38.424
38.391,38.204
38.993,37.983
39.567,37.762
40.103,37.542
40.592,37.322
41.025,37.103
41.398,36.885
41.707,36.668
41.948,36.453
42.124,36.239
42.236,36.029
42.287,35.822
42.282,35.62
42.227,35.425
42.129,35.236
41.994,35.055
41.828,34.882
41.639,34.719
41.432,34.566
41.212,34.425
40.984,34.297
40.752,34.182
40.517,34.083
40.283,34
40.052,33.934
39.824,33.884
39.603,33.851
39.386,33.835
39.176,33.834
38.972,33.849
38.772,33.879
38.576,33.924
38.383,33.982
38.194,34.054
38.007,34.139
37.823,34.234
37.641,34.339
37.461,34.453
37.284,34.573
37.111,34.698
36.941,34.825
36.775,34.955
36.613,35.084
36.453,35.211
36.297,35.334
36.143,35.451
35.991,35.56
35.839,35.659
35.689,35.746
35.54,35.822
35.391,35.886
35.243,35.936
35.098,35.974
34.955,35.998
34.817,36.008
34.685,36.006
34.561,35.99
34.447,35.962
34.345,35.923
34.257,35.874
34.185,35.816
34.13,35.751
34.093,35.679
34.075,35.602
34.074,35.52
34.092,35.434
34.126,35.344
34.176,35.25
34.24,35.153
34.318,35.054
34.407,34.954
34.507,34.853
34.615,34.753
34.731,34.653
34.851,34.555
34.974,34.458
35.098,34.364
35.219,34.273
35.337,34.183
35.45,34.096
35.558,34.01
35.658,33.925
35.75,33.841
35.834,33.758
35.907,33.676
35.968,33.594
36.017,33.512
36.054,33.431
36.078,33.351
36.089,33.271
36.087,33.192
36.072,33.115
36.047,33.039
36.01,32.965
35.964,32.893
35.91,32.822
35.848,32.754
35.781,32.689
35.709,32.625
35.634,32.566
35.555,32.509
35.474,32.456
35.39,32.405
35.304,32.357
35.216,32.311
35.127,32.271
35.036,32.236
34.944,32.208
34.851,32.191
34.758,32.187
34.664,32.201
34.569,32.234
34.474,32.294
34.378,32.385
34.281,32.514
34.185,32.687
34.09,32.91
33.995,33.187
33.901,33.521
33.809,33.913
33.718,34.362
33.629,34.864
33.542,35.415
33.458,36.006
33.375,36.629
33.295,37.273
33.216,37.925
33.14,38.576
33.066,39.213
32.995,39.825
32.927,40.403
32.862,40.942
32.802,41.435
32.744,41.873
32.69,42.252
32.639,42.568
32.591,42.817
32.546,42.999
32.501,43.115
32.458,43.168
32.415,43.162
32.375,43.104
32.336,42.999
32.3,42.855
32.266,42.679
32.235,42.477
32.208,42.256
32.185,42.021
32.166,41.778
32.152,41.531
32.142,41.285
32.137,41.042
32.135,40.804
32.137,40.572
32.141,40.346
32.147,40.126
32.155,39.912
32.165,39.704
32.177,39.502
32.19,39.305
32.205,39.113
32.222,38.925
32.24,38.739
32.26,38.554
32.281,38.368
32.301,38.181
32.322,37.993
32.342,37.803
32.361,37.611
32.378,37.417
32.394,37.222
32.41,37.024
32.425,36.824
32.44,36.622
32.454,36.418
32.467,36.213
32.478,36.009
32.487,35.806
32.494,35.608
32.5,35.415
32.502,35.229
32.503,35.052
32.501,34.883
32.498,34.726
32.493,34.579
32.489,34.444
32.485,34.323
32.486,34.215
32.494,34.122
32.512,34.045
32.545,33.985
32.598,33.942
32.677,33.915
32.788,33.906
32.939,33.912
33.136,33.933
33.385,33.967
33.69,34.014
34.054,34.073
34.476,34.143
34.954,34.222
35.482,34.309
36.053,34.404
36.658,34.504
37.285,34.608
37.923,34.714
38.558,34.819
39.178,34.921
39.769,35.019
40.321,35.111
40.824,35.197
41.269,35.274
41.652,35.343
41.967,35.403
42.212,35.453
42.39,35.492
42.5,35.522
42.549,35.544
42.54,35.557
42.48,35.562
42.376,35.56
42.234,35.551
42.063,35.535
41.87,35.511
41.659,35.481
41.438,35.445
41.211,35.404
40.981,35.358
40.75,35.307
40.52,35.251
40.292,35.19
40.066,35.125
39.843,35.057
39.623,34.986
39.407,34.911
39.194,34.833
38.985,34.753
38.779,34.671
38.576,34.587
38.376,34.5
38.179,34.412
37.985,34.323
37.795,34.233
37.609,34.142
37.428,34.051
37.251,33.959
37.079,33.867
36.913,33.775
36.75,33.684
36.59,33.593
36.434,33.503
36.279,33.414
36.125,33.327
35.973,33.242
35.821,33.158
35.67,33.076
35.519,32.997
35.37,32.92
35.223,32.845
35.08,32.771
34.943,32.7
34.813,32.631
34.693,32.566
34.584,32.504
34.489,32.447
34.408,32.397
34.343,32.356
34.295,32.325
34.264,32.307
34.252,32.304
34.257,32.321
34.28,32.361
34.321,32.428
34.377,32.529
34.449,32.668
34.534,32.85
34.632,33.079
34.741,33.358
34.857,33.688
34.979,34.069
35.106,34.5
35.234,34.977
35.362,35.494
35.489,36.044
35.61,36.619
35.726,37.207
35.833,37.798
35.931,38.381
36.018,38.945
36.094,39.479
36.159,39.974
36.212,40.423
36.252,40.82
36.279,41.163
36.295,41.448
36.298,41.672
36.29,41.836
36.271,41.941
36.241,41.99
36.204,41.989
36.158,41.944
36.106,41.861
36.047,41.745
35.983,41.602
35.914,41.438
35.839,41.258
35.759,41.066
35.676,40.866
35.59,40.661
35.501,40.452
35.41,40.242
35.317,40.032
35.223,39.822
35.126,39.613
35.027,39.407
34.927,39.204
34.826,39.005
34.724,38.81
34.621,38.62
34.517,38.434
34.412,38.252
34.307,38.075
34.202,37.901
34.098,37.729
33.996,37.561
33.895,37.394
33.798,37.228
33.703,37.061
33.611,36.894
33.522,36.725
33.435,36.553
33.35,36.379
33.268,36.201
33.19,36.02
33.115,35.837
33.045,35.651
32.98,35.465
32.919,35.28
32.862,35.099
32.808,34.924
32.759,34.756
32.713,34.597
32.67,34.449
32.629,34.314
32.59,34.193
32.553,34.089
32.516,34.001
32.479,33.93
32.443,33.877
32.407,33.842
32.371,33.824
32.338,33.823
32.307,33.836
32.279,33.864
32.255,33.903
32.235,33.953
32.218,34.013
32.205,34.081
32.196,34.158
32.19,34.24
32.188,34.328
32.189,34.418
32.192,34.51
32.198,34.603
32.205,34.696
32.213,34.787
32.222,34.876
32.231,34.96
32.24,35.038
32.25,35.109
32.259,35.172
32.267,35.226
32.276,35.272
32.285,35.309
32.293,35.335
32.302,35.351
32.31,35.359
32.319,35.357
32.329,35.347
32.341,35.33
32.354,35.306
32.369,35.276
32.387,35.241
32.405,35.199
32.425,35.152
32.446,35.099
32.467,35.041
32.488,34.979
32.506,34.912
32.521,34.842
32.534,34.768
32.545,34.689
32.553,34.606
32.558,34.518
32.562,34.426
32.564,34.331
32.566,34.234
32.569,34.135
32.575,34.036
32.587,33.937
32.611,33.838
32.652,33.739
32.714,33.641
32.805,33.543
32.929,33.446
33.095,33.349
33.308,33.252
33.574,33.156
33.895,33.058
34.274,32.96
34.709,32.862
35.198,32.763
35.734,32.664
36.308,32.566
36.912,32.47
37.531,32.377
38.154,32.288
38.767,32.202
39.359,32.121
