Trial 3:3back,Trial 5:3back
35.576,35.064
35.577,35.056
35.577,35.044
35.576,35.03
35.574,35.013
35.572,34.993
35.57,34.972
35.569,34.95
35.567,34.926
35.566,34.902
35.563,34.878
35.558,34.855
35.551,34.833
35.54,34.814
35.525,34.797
35.505,34.783
35.48,34.77
35.451,34.761
35.419,34.755
35.386,34.751
35.354,34.75
35.325,34.749
35.299,34.749
35.277,34.749
35.261,34.749
35.249,34.751
35.239,34.757
35.231,34.769
35.224,34.789
35.215,34.816
35.207,34.853
35.197,34.897
35.187,34.949
35.177,35.009
35.165,35.076
35.153,35.149
35.141,35.228
35.13,35.311
35.119,35.394
35.11,35.478
35.103,35.561
35.098,35.643
35.095,35.722
35.093,35.799
35.091,35.874
35.089,35.946
35.085,36.014
35.078,36.078
35.068,36.136
35.054,36.188
35.037,36.232
35.017,36.27
34.993,36.302
34.968,36.328
34.941,36.35
34.913,36.368
34.885,36.383
34.857,36.393
34.831,36.4
34.807,36.403
34.785,36.403
34.767,36.401
34.751,36.396
34.738,36.39
34.728,36.381
34.721,36.367
34.716,36.346
34.712,36.317
34.709,36.282
34.706,36.241
34.703,36.199
34.699,36.158
34.693,36.122
34.685,36.091
34.675,36.066
34.663,36.049
34.649,36.037
34.633,36.03
34.617,36.027
34.6,36.028
34.582,36.031
34.564,36.038
34.547,36.047
34.53,36.059
34.514,36.07
34.499,36.081
34.483,36.089
34.467,36.093
34.45,36.094
34.432,36.091
34.411,36.084
34.388,36.072
34.363,36.056
34.337,36.034
34.309,36.008
34.283,35.979
34.258,35.95
34.237,35.921
34.219,35.895
34.204,35.873
34.194,35.853
34.187,35.836
34.183,35.821
34.182,35.808
34.182,35.798
34.185,35.791
34.19,35.786
34.197,35.783
34.208,35.781
34.224,35.782
34.245,35.784
34.275,35.79
34.314,35.797
34.364,35.806
34.425,35.816
34.497,35.827
34.582,35.839
34.677,35.85
34.782,35.861
34.895,35.872
35.014,35.882
35.137,35.893
35.261,35.904
35.383,35.917
35.502,35.93
35.614,35.945
35.719,35.959
35.814,35.972
35.898,35.983
35.973,35.989
36.037,35.992
36.091,35.989
36.136,35.981
36.174,35.968
36.205,35.95
36.232,35.929
36.255,35.903
36.276,35.873
36.296,35.839
36.315,35.804
36.334,35.769
36.353,35.733
36.373,35.699
36.393,35.664
36.413,35.63
36.432,35.594
36.449,35.557
36.465,35.518
36.477,35.478
36.485,35.438
36.49,35.399
36.491,35.361
36.488,35.327
36.483,35.297
36.476,35.271
36.47,35.248
36.462,35.229
36.455,35.213
36.447,35.201
36.44,35.192
36.434,35.186
36.43,35.183
36.426,35.181
36.425,35.182
36.425,35.183
36.428,35.184
36.432,35.185
36.437,35.187
36.445,35.19
36.452,35.194
36.459,35.199
36.464,35.204
36.465,35.208
36.463,35.21
36.457,35.21
36.447,35.209
36.431,35.205
36.41,35.201
36.384,35.196
36.356,35.191
36.325,35.187
36.294,35.184
36.263,35.18
36.233,35.176
36.204,35.172
36.179,35.166
36.157,35.159
36.138,35.151
36.124,35.143
36.114,35.135
36.108,35.129
36.104,35.125
36.103,35.124
36.104,35.125
36.107,35.129
36.111,35.134
36.116,35.14
36.122,35.148
36.128,35.155
36.136,35.163
36.143,35.169
36.148,35.174
36.152,35.175
36.153,35.174
36.151,35.17
36.146,35.163
36.137,35.155
36.124,35.145
36.105,35.134
36.082,35.12
36.055,35.105
36.025,35.086
35.993,35.064
35.961,35.04
35.929,35.013
35.898,34.984
35.871,34.954
35.847,34.924
35.829,34.895
35.816,34.87
35.808,34.85
35.804,34.835
35.804,34.824
35.806,34.817
35.808,34.812
35.809,34.808
35.807,34.804
35.802,34.798
35.794,34.792
35.785,34.786
35.774,34.779
35.763,34.774
35.753,34.769
35.744,34.765
35.737,34.764
35.733,34.768
35.73,34.778
35.729,34.797
35.73,34.826
35.731,34.867
35.733,34.919
35.736,34.982
35.737,35.055
35.737,35.136
35.734,35.225
35.729,35.321
35.721,35.422
35.71,35.529
35.696,35.639
35.678,35.75
35.657,35.859
35.632,35.964
35.605,36.063
35.576,36.152
35.545,36.232
35.514,36.302
35.485,36.363
35.457,36.415
35.433,36.46
35.412,36.498
35.395,36.53
35.382,36.558
35.372,36.581
35.364,36.601
35.353,36.616
35.339,36.627
35.321,36.633
35.3,36.635
35.275,36.633
35.247,36.628
35.218,36.622
35.187,36.614
35.155,36.606
35.124,36.597
35.095,36.589
35.069,36.582
35.046,36.577
35.027,36.574
35.013,36.572
35.003,36.572
34.997,36.574
34.994,36.575
34.995,36.577
34.997,36.578
34.999,36.577
35,36.574
34.998,36.567
34.993,36.558
34.985,36.546
34.973,36.533
34.956,36.518
34.936,36.503
34.913,36.488
34.887,36.472
34.859,36.456
34.829,36.439
34.798,36.421
34.767,36.402
34.735,36.382
34.703,36.362
34.672,36.341
34.642,36.322
34.615,36.303
34.588,36.285
34.563,36.269
34.54,36.253
34.517,36.239
34.496,36.228
34.478,36.221
34.464,36.219
34.455,36.221
34.453,36.227
34.46,36.236
34.475,36.245
34.502,36.252
34.539,36.258
34.588,36.262
34.648,36.263
34.724,36.262
34.817,36.26
34.928,36.257
35.053,36.253
35.187,36.249
35.326,36.243
35.465,36.236
35.6,36.228
35.726,36.218
35.842,36.207
35.944,36.194
36.032,36.179
36.105,36.163
36.163,36.146
36.207,36.13
36.238,36.114
36.259,36.099
36.27,36.083
36.272,36.067
36.269,36.05
36.263,36.033
36.254,36.016
36.245,35.999
36.237,35.982
36.231,35.966
36.227,35.95
36.226,35.933
36.228,35.915
36.232,35.897
36.239,35.877
36.247,35.857
36.255,35.836
36.263,35.813
36.271,35.79
36.278,35.766
36.283,35.741
36.286,35.711
36.287,35.674
36.285,35.627
36.281,35.573
36.273,35.515
36.263,35.455
36.249,35.398
36.235,35.347
36.219,35.303
36.202,35.268
36.186,35.242
36.17,35.225
36.154,35.217
36.138,35.217
36.123,35.223
36.106,35.236
36.09,35.254
36.073,35.274
36.055,35.295
36.037,35.314
36.017,35.328
35.997,35.335
35.975,35.335
35.953,35.327
35.93,35.313
35.908,35.295
35.886,35.275
35.864,35.253
35.843,35.23
35.823,35.207
35.803,35.184
35.785,35.16
35.767,35.135
35.75,35.11
35.733,35.085
35.716,35.06
35.698,35.035
35.681,35.009
35.664,34.982
35.648,34.955
35.635,34.931
35.626,34.908
35.619,34.889
35.617,34.873
35.618,34.86
35.621,34.849
35.628,34.838
35.637,34.827
35.647,34.816
35.657,34.804
35.666,34.793
35.673,34.784
35.677,34.775
35.676,34.768
35.67,34.763
35.658,34.76
35.64,34.759
35.617,34.758
35.589,34.759
35.557,34.759
35.522,34.759
35.485,34.758
35.447,34.755
35.408,34.752
35.37,34.747
35.333,34.742
35.3,34.735
35.27,34.728
35.245,34.719
35.225,34.711
35.208,34.701
35.194,34.69
35.183,34.679
35.175,34.667
35.169,34.656
35.166,34.646
35.163,34.639
35.16,34.638
35.156,34.644
35.151,34.658
35.145,34.683
35.135,34.719
35.123,34.766
35.108,34.824
35.09,34.893
35.068,34.971
35.044,35.056
35.018,35.146
34.99,35.24
34.962,35.335
34.933,35.431
34.906,35.527
34.879,35.622
34.855,35.715
34.832,35.806
34.812,35.894
34.793,35.977
34.777,36.055
34.762,36.126
34.749,36.19
34.737,36.246
34.727,36.293
34.717,36.332
34.709,36.364
34.703,36.39
34.697,36.411
34.692,36.426
34.688,36.436
34.685,36.441
34.683,36.441
34.681,36.436
34.678,36.43
34.676,36.422
34.672,36.413
34.666,36.403
34.657,36.393
34.647,36.382
34.635,36.37
34.623,36.357
34.61,36.344
34.598,36.332
34.586,36.32
34.575,36.309
34.565,36.299
34.555,36.29
34.546,36.283
34.537,36.278
34.53,36.273
34.523,36.269
34.517,36.266
34.511,36.262
34.506,36.257
34.5,36.253
34.492,36.247
34.484,36.237
34.476,36.222
34.468,36.199
34.459,36.171
34.452,36.139
34.445,36.105
34.439,36.072
34.434,36.041
34.428,36.012
34.42,35.985
34.411,35.961
34.401,35.94
34.388,35.924
34.374,35.911
34.357,35.903
34.337,35.898
34.316,35.896
34.294,35.896
34.271,35.898
34.248,35.902
34.225,35.906
34.202,35.911
34.181,35.916
34.162,35.921
34.146,35.924
34.133,35.926
34.124,35.926
34.119,35.926
34.119,35.923
34.125,35.92
34.139,35.916
34.162,35.912
34.195,35.909
34.238,35.907
34.291,35.906
34.355,35.905
34.428,35.901
34.508,35.894
34.594,35.883
34.681,35.867
34.766,35.848
34.848,35.825
34.927,35.799
35.002,35.771
35.075,35.742
35.145,35.712
35.215,35.683
35.285,35.655
35.356,35.628
35.427,35.602
35.498,35.576
35.569,35.551
35.636,35.525
35.699,35.5
35.755,35.475
35.805,35.452
35.846,35.431
35.878,35.411
35.902,35.394
35.918,35.379
35.925,35.366
35.926,35.355
35.922,35.346
35.914,35.337
35.903,35.327
35.891,35.315
35.881,35.302
35.873,35.287
35.87,35.271
35.871,35.255
35.877,35.239
35.888,35.223
35.903,35.206
35.922,35.189
35.943,35.17
35.965,35.152
35.985,35.132
36.001,35.112
36.011,35.09
36.015,35.066
36.012,35.041
36.002,35.016
35.986,34.991
35.965,34.969
35.94,34.949
35.913,34.934
35.885,34.922
35.858,34.912
35.832,34.903
35.809,34.895
35.79,34.887
35.775,34.88
35.766,34.873
35.762,34.867
35.762,34.862
35.767,34.857
35.772,34.851
35.778,34.846
35.781,34.839
35.782,34.833
35.78,34.826
35.774,34.82
35.764,34.813
35.75,34.805
35.731,34.797
35.708,34.787
35.682,34.775
35.654,34.763
35.626,34.75
35.598,34.736
35.571,34.723
35.545,34.71
35.522,34.696
35.502,34.682
35.486,34.665
35.474,34.645
35.467,34.623
35.464,34.601
35.464,34.578
35.468,34.555
35.474,34.535
35.483,34.517
35.493,34.502
35.502,34.488
35.51,34.476
35.515,34.465
35.517,34.457
35.514,34.453
35.506,34.452
35.492,34.455
35.471,34.462
35.446,34.475
35.417,34.497
35.386,34.532
35.355,34.58
35.324,34.639
35.295,34.709
35.267,34.787
35.24,34.872
35.215,34.961
35.19,35.051
35.166,35.14
35.143,35.226
35.119,35.308
35.095,35.385
35.071,35.457
35.047,35.523
35.022,35.587
34.996,35.648
34.971,35.707
34.946,35.765
34.924,35.821
34.906,35.878
34.891,35.933
34.878,35.986
34.869,36.035
34.861,36.08
34.856,36.118
34.852,36.151
34.851,36.176
34.851,36.196
34.853,36.212
34.856,36.223
34.859,36.231
34.863,36.237
34.864,36.24
34.863,36.242
34.859,36.242
34.85,36.24
34.838,36.237
34.822,36.232
34.804,36.226
34.785,36.218
34.765,36.207
34.746,36.194
34.726,36.18
34.709,36.166
34.694,36.151
34.683,36.137
34.676,36.124
34.673,36.112
34.674,36.102
34.677,36.091
34.682,36.08
34.687,36.067
34.691,36.051
34.694,36.032
34.695,36.011
34.694,35.988
34.69,35.966
34.683,35.946
34.674,35.928
34.663,35.911
34.65,35.894
34.635,35.875
34.619,35.853
34.602,35.83
34.585,35.807
34.568,35.785
34.552,35.763
34.536,35.743
34.521,35.723
34.506,35.703
34.492,35.682
34.479,35.661
34.468,35.641
34.458,35.62
34.449,35.602
34.44,35.587
34.431,35.575
34.423,35.567
34.413,35.561
34.404,35.557
34.396,35.555
34.387,35.553
34.379,35.551
34.371,35.55
34.363,35.548
34.354,35.547
34.345,35.546
34.334,35.547
34.321,35.547
34.307,35.549
34.293,35.551
34.277,35.555
34.262,35.559
34.247,35.563
34.233,35.566
34.219,35.569
34.207,35.571
34.196,35.571
34.186,35.57
34.177,35.568
34.17,35.563
34.164,35.556
34.161,35.547
34.16,35.535
34.164,35.521
34.175,35.505
34.195,35.486
34.225,35.465
34.267,35.441
34.323,35.415
34.392,35.387
34.474,35.356
34.567,35.326
34.668,35.296
34.777,35.268
34.89,35.243
35.005,35.22
35.119,35.199
35.23,35.181
35.336,35.165
35.436,35.15
35.527,35.136
35.608,35.122
35.68,35.108
35.742,35.095
35.795,35.081
35.838,35.067
35.872,35.053
35.9,35.039
35.92,35.024
35.935,35.008
35.945,34.989
35.951,34.967
35.953,34.944
35.952,34.919
35.948,34.895
35.944,34.872
35.94,34.851
35.937,34.832
35.936,34.816
35.936,34.802
35.938,34.791
35.942,34.783
35.948,34.777
35.955,34.775
35.962,34.775
35.97,34.777
35.976,34.778
35.98,34.778
35.982,34.775
35.982,34.769
35.979,34.76
35.973,34.749
35.964,34.736
35.952,34.721
35.939,34.705
35.925,34.687
35.912,34.667
35.9,34.645
35.892,34.62
35.885,34.596
35.88,34.572
35.877,34.551
35.874,34.533
35.872,34.519
35.868,34.507
35.863,34.498
35.857,34.49
35.847,34.483
35.834,34.476
35.817,34.47
35.796,34.465
35.769,34.459
35.737,34.453
35.704,34.446
35.67,34.438
35.637,34.428
35.607,34.417
35.582,34.408
35.561,34.4
35.546,34.395
35.535,34.394
35.528,34.398
35.525,34.406
35.524,34.421
35.526,34.444
35.529,34.477
35.533,34.52
35.536,34.575
35.54,34.639
35.543,34.712
35.545,34.794
35.546,34.883
35.546,34.977
35.543,35.076
35.538,35.177
35.53,35.28
35.52,35.384
35.509,35.487
35.497,35.588
35.484,35.686
35.47,35.779
35.456,35.865
35.441,35.944
35.425,36.015
35.408,36.077
35.388,36.13
35.367,36.174
35.344,36.211
35.32,36.241
35.297,36.266
35.273,36.286
35.251,36.304
35.231,36.319
35.212,36.332
35.196,36.344
35.182,36.355
35.172,36.363
35.165,36.37
35.16,36.374
35.157,36.378
35.155,36.379
35.154,36.379
35.154,36.378
35.155,36.376
35.156,36.374
35.156,36.372
35.154,36.369
35.147,36.366
35.137,36.361
35.122,36.354
35.103,36.347
35.079,36.338
35.052,36.328
35.023,36.316
34.992,36.301
34.963,36.283
34.936,36.263
34.911,36.24
34.89,36.216
34.873,36.192
34.86,36.168
34.852,36.145
34.85,36.121
34.851,36.097
34.855,36.072
34.861,36.046
34.866,36.019
34.871,35.991
34.874,35.961
34.875,35.93
34.874,35.898
34.872,35.867
34.867,35.837
34.861,35.811
34.853,35.788
34.844,35.77
34.835,35.757
34.825,35.749
34.816,35.744
34.806,35.735
34.797,35.722
34.788,35.701
34.778,35.676
34.766,35.647
34.752,35.619
34.736,35.593
34.718,35.573
34.698,35.559
34.678,35.552
34.656,35.553
34.634,35.561
34.613,35.574
34.594,35.591
34.575,35.613
34.56,35.639
34.547,35.665
34.538,35.691
34.532,35.713
34.528,35.731
34.525,35.742
34.523,35.749
34.521,35.75
34.519,35.748
34.515,35.742
34.511,35.733
34.505,35.722
34.498,35.709
34.49,35.694
34.48,35.677
34.47,35.658
34.46,35.638
34.449,35.616
34.438,35.594
34.426,35.572
34.414,35.55
34.403,35.53
34.392,35.511
34.381,35.492
34.37,35.475
34.358,35.458
34.347,35.442
34.334,35.427
34.321,35.412
34.309,35.395
34.296,35.377
34.284,35.355
34.273,35.331
34.262,35.305
34.253,35.28
34.246,35.255
34.241,35.231
34.237,35.208
34.236,35.186
34.238,35.166
34.244,35.146
34.254,35.128
34.269,35.109
34.29,35.092
34.316,35.074
34.35,35.058
34.39,35.043
34.438,35.029
34.493,35.018
34.554,35.009
34.622,35.002
34.695,34.996
34.774,34.992
34.856,34.989
34.943,34.986
35.032,34.983
35.124,34.981
35.217,34.978
35.31,34.975
35.402,34.972
35.489,34.968
35.57,34.965
35.645,34.963
35.713,34.961
35.774,34.961
35.828,34.96
35.875,34.958
35.914,34.953
35.944,34.945
35.966,34.933
35.981,34.918
35.988,34.9
35.989,34.88
35.986,34.858
35.978,34.836
35.968,34.813
35.958,34.79
35.948,34.77
35.939,34.752
35.931,34.736
35.925,34.723
35.92,34.712
35.917,34.701
35.915,34.691
35.916,34.681
35.918,34.672
35.92,34.663
35.922,34.657
35.924,34.652
35.926,34.649
35.928,34.647
35.928,34.645
35.928,34.641
35.928,34.634
35.927,34.624
35.925,34.613
35.924,34.603
35.923,34.596
35.924,34.595
35.925,34.602
35.927,34.619
35.929,34.645
35.931,34.681
35.93,34.726
35.926,34.783
35.918,34.85
35.905,34.928
35.888,35.015
35.866,35.11
35.84,35.21
35.811,35.313
35.779,35.418
35.745,35.522
35.712,35.625
35.68,35.726
35.651,35.826
35.627,35.923
35.607,36.015
35.592,36.102
35.581,36.183
35.576,36.257
35.574,36.326
35.577,36.39
35.584,36.447
35.592,36.498
35.604,36.543
35.616,36.583
35.629,36.617
35.642,36.645
35.654,36.667
35.664,36.683
35.673,36.692
35.678,36.697
35.68,36.696
35.677,36.692
35.671,36.684
35.658,36.674
35.641,36.663
35.618,36.652
35.59,36.642
35.559,36.634
35.526,36.628
35.491,36.624
35.458,36.622
35.427,36.621
35.4,36.621
35.378,36.623
35.362,36.626
35.35,36.63
35.343,36.635
35.341,36.639
35.341,36.643
35.344,36.647
35.346,36.649
35.347,36.65
35.344,36.649
35.337,36.645
35.324,36.638
35.305,36.629
35.28,36.616
35.25,36.6
35.216,36.581
35.179,36.559
35.141,36.535
35.102,36.51
35.064,36.484
35.028,36.46
34.995,36.439
34.966,36.419
34.943,36.402
34.925,36.385
34.913,36.368
34.904,36.348
34.9,36.325
34.9,36.301
34.904,36.276
34.911,36.253
34.921,36.233
34.931,36.215
34.939,36.199
34.945,36.185
34.947,36.172
34.945,36.161
34.94,36.15
34.93,36.14
34.916,36.132
34.899,36.126
34.879,36.121
34.858,36.118
34.836,36.115
34.815,36.113
34.794,36.111
34.776,36.109
34.76,36.105
34.747,36.101
34.737,36.096
34.731,36.09
34.727,36.084
34.725,36.077
34.723,36.071
34.72,36.065
34.717,36.06
34.714,36.055
34.71,36.051
34.707,36.046
34.704,36.039
34.701,36.032
34.699,36.022
34.697,36.012
34.696,36.001
34.694,35.988
34.693,35.975
34.692,35.959
34.689,35.941
34.684,35.92
34.677,35.896
34.668,35.87
34.657,35.843
34.645,35.816
34.632,35.787
34.621,35.756
34.61,35.725
34.6,35.693
34.592,35.663
34.584,35.633
34.579,35.605
34.575,35.579
34.572,35.555
34.57,35.532
34.568,35.511
34.565,35.491
34.561,35.471
34.554,35.45
34.546,35.429
34.535,35.408
34.523,35.388
34.51,35.369
34.497,35.351
34.484,35.337
34.474,35.326
34.464,35.316
34.456,35.307
34.45,35.297
34.444,35.284
34.439,35.269
34.434,35.253
34.427,35.235
34.418,35.217
34.407,35.198
34.394,35.18
34.379,35.162
34.361,35.145
34.342,35.129
34.323,35.114
34.302,35.1
34.282,35.088
34.261,35.076
34.242,35.065
34.225,35.055
34.211,35.044
34.201,35.033
34.196,35.022
34.198,35.011
34.206,35.001
34.222,34.993
34.246,34.986
34.278,34.981
34.318,34.975
34.365,34.969
34.418,34.96
34.477,34.948
34.54,34.934
34.608,34.921
34.68,34.907
34.755,34.896
34.832,34.886
34.909,34.877
34.985,34.868
35.06,34.86
35.132,34.852
35.202,34.844
35.269,34.835
35.333,34.826
35.394,34.816
35.453,34.803
35.51,34.787
35.565,34.768
35.617,34.746
35.666,34.724
35.712,34.703
35.755,34.683
35.792,34.664
35.825,34.646
35.852,34.629
35.873,34.613
35.886,34.599
35.892,34.588
35.892,34.581
35.885,34.58
35.874,34.585
35.859,34.599
35.841,34.62
35.822,34.65
35.802,34.69
35.785,34.739
35.77,34.797
35.758,34.863
35.75,34.938
35.746,35.02
35.745,35.109
35.748,35.206
35.754,35.308
35.763,35.415
35.774,35.525
35.787,35.638
35.802,35.751
35.819,35.865
35.837,35.976
35.855,36.083
35.872,36.184
35.887,36.277
35.898,36.361
35.905,36.436
35.906,36.503
35.902,36.561
35.892,36.611
35.876,36.655
35.853,36.693
35.826,36.727
35.795,36.756
35.76,36.782
35.723,36.804
35.686,36.823
35.65,36.839
35.617,36.853
35.587,36.865
35.562,36.877
35.542,36.887
35.527,36.896
35.516,36.904
35.511,36.912
35.51,36.919
35.512,36.928
35.518,36.936
35.524,36.945
35.532,36.952
35.539,36.958
35.544,36.96
35.547,36.96
35.546,36.958
35.542,36.954
35.533,36.948
35.521,36.94
35.508,36.931
35.494,36.921
35.48,36.911
35.467,36.899
35.457,36.887
35.448,36.874
35.442,36.86
35.437,36.845
35.433,36.829
35.43,36.815
35.426,36.8
35.421,36.785
35.415,36.77
35.408,36.753
35.399,36.734
35.387,36.713
35.372,36.691
35.354,36.668
35.332,36.645
35.308,36.622
35.282,36.6
35.257,36.577
35.232,36.557
35.208,36.538
35.187,36.521
35.169,36.507
35.153,36.496
35.14,36.487
35.129,36.48
35.119,36.473
35.111,36.467
35.104,36.46
35.096,36.452
35.087,36.443
35.078,36.433
35.067,36.422
35.056,36.411
35.045,36.399
35.036,36.386
35.029,36.373
35.021,36.36
35.014,36.346
35.005,36.333
34.995,36.319
34.984,36.306
34.973,36.294
34.96,36.281
34.947,36.268
34.933,36.254
34.92,36.238
34.907,36.222
34.896,36.206
34.887,36.189
34.882,36.172
34.879,36.156
34.878,36.139
34.879,36.122
34.879,36.103
34.878,36.083
34.875,36.062
34.868,36.041
34.857,36.02
34.844,35.999
34.828,35.978
34.809,35.958
34.789,35.937
34.769,35.916
34.75,35.896
34.733,35.875
34.719,35.855
34.707,35.836
34.698,35.817
34.69,35.799
34.684,35.781
34.68,35.762
34.675,35.742
34.67,35.721
34.665,35.699
34.659,35.675
34.654,35.652
34.649,35.628
34.646,35.605
34.643,35.581
34.642,35.557
34.643,35.531
34.645,35.505
34.648,35.479
34.651,35.452
34.654,35.427
34.654,35.401
34.652,35.376
34.645,35.351
34.635,35.328
34.62,35.306
34.602,35.286
34.582,35.271
34.561,35.258
34.541,35.246
34.524,35.236
34.511,35.225
34.501,35.212
34.495,35.199
34.494,35.185
34.496,35.171
34.501,35.156
34.508,35.142
34.515,35.128
34.521,35.113
34.525,35.098
34.526,35.083
34.524,35.067
34.519,35.051
34.512,35.035
34.503,35.02
34.492,35.005
34.481,34.989
34.469,34.974
34.458,34.958
34.448,34.942
34.439,34.926
34.431,34.91
34.424,34.895
34.419,34.882
34.414,34.871
34.408,34.861
34.401,34.851
34.392,34.839
34.382,34.827
34.371,34.813
34.359,34.798
34.346,34.785
34.333,34.773
34.32,34.763
34.306,34.756
34.292,34.75
34.278,34.745
34.264,34.742
34.25,34.739
34.239,34.737
34.231,34.733
34.228,34.726
34.231,34.716
34.241,34.701
34.258,34.685
34.283,34.667
34.316,34.65
34.356,34.632
34.402,34.615
34.454,34.599
34.512,34.585
34.574,34.571
34.642,34.559
34.714,34.548
34.79,34.538
34.868,34.529
34.948,34.522
35.03,34.52
35.112,34.522
35.194,34.531
35.274,34.549
35.352,34.577
35.427,34.615
35.499,34.666
35.566,34.728
35.628,34.802
35.683,34.889
35.731,34.986
35.77,35.091
35.799,35.203
35.818,35.321
35.829,35.443
35.831,35.567
35.825,35.693
35.815,35.818
35.799,35.94
35.783,36.059
35.767,36.171
35.754,36.275
35.745,36.368
35.74,36.451
35.738,36.523
35.739,36.583
35.74,36.634
35.743,36.674
35.745,36.705
35.746,36.73
35.746,36.749
35.744,36.764
35.741,36.775
35.738,36.785
35.733,36.794
35.728,36.804
35.721,36.814
35.713,36.825
35.705,36.838
35.698,36.849
35.691,36.86
35.685,36.868
35.681,36.876
35.676,36.883
35.672,36.892
35.667,36.902
35.661,36.915
35.654,36.929
35.646,36.945
35.637,36.959
35.626,36.972
35.615,36.981
35.602,36.986
35.588,36.986
35.574,36.982
35.56,36.974
35.546,36.962
35.532,36.946
35.517,36.927
35.503,36.905
35.489,36.881
35.475,36.854
35.462,36.826
35.449,36.797
35.438,36.767
35.429,36.737
35.422,36.708
35.417,36.679
35.416,36.65
35.416,36.621
35.418,36.593
35.422,36.565
35.426,36.537
35.431,36.509
35.435,36.483
35.437,36.458
35.437,36.438
35.433,36.42
35.426,36.406
35.416,36.395
35.401,36.386
35.384,36.38
35.366,36.375
35.349,36.373
35.335,36.372
35.324,36.374
35.317,36.377
35.315,36.382
35.317,36.389
35.324,36.398
35.332,36.409
35.342,36.419
35.353,36.427
35.361,36.432
35.367,36.432
35.368,36.427
35.365,36.418
35.356,36.404
35.342,36.387
35.323,36.368
35.3,36.346
35.273,36.322
35.242,36.297
35.21,36.27
35.176,36.243
35.143,36.215
35.111,36.188
35.08,36.162
35.053,36.137
35.031,36.111
35.013,36.085
34.998,36.057
34.988,36.03
34.982,36.003
34.98,35.978
34.982,35.956
34.987,35.936
34.995,35.918
35.003,35.902
35.01,35.884
35.014,35.865
35.014,35.844
35.009,35.819
34.993,35.793
34.966,35.767
34.93,35.741
34.888,35.715
34.843,35.689
34.798,35.665
34.756,35.64
34.719,35.617
34.688,35.593
34.667,35.569
34.654,35.545
34.649,35.519
34.652,35.492
34.662,35.465
34.679,35.438
34.701,35.411
34.726,35.384
34.753,35.358
34.779,35.333
34.804,35.311
34.824,35.29
34.839,35.271
34.848,35.254
34.851,35.239
34.85,35.223
34.844,35.207
34.836,35.189
34.826,35.172
34.814,35.156
34.802,35.142
34.789,35.129
34.774,35.118
34.759,35.109
34.742,35.101
34.724,35.095
34.706,35.089
34.688,35.084
34.67,35.079
34.653,35.073
34.638,35.065
34.624,35.055
34.612,35.044
34.602,35.032
34.595,35.018
34.591,35.004
34.59,34.989
34.591,34.974
34.595,34.958
34.599,34.941
34.603,34.924
34.607,34.907
34.61,34.89
34.612,34.872
34.612,34.856
34.616,34.84
34.624,34.826
34.638,34.814
34.656,34.803
34.676,34.792
34.696,34.781
34.714,34.77
34.726,34.759
34.733,34.747
34.732,34.736
34.724,34.724
34.708,34.71
34.686,34.694
34.658,34.676
34.627,34.657
34.592,34.636
34.557,34.614
34.522,34.593
34.487,34.572
34.453,34.55
34.422,34.528
34.393,34.505
34.367,34.48
34.347,34.456
34.331,34.431
34.322,34.406
34.318,34.382
34.319,34.358
34.325,34.336
34.334,34.317
34.346,34.3
34.359,34.286
34.373,34.274
34.386,34.266
34.398,34.259
34.41,34.255
34.42,34.255
34.43,34.259
34.44,34.27
34.45,34.288
34.462,34.317
34.477,34.356
34.497,34.408
34.52,34.474
34.548,34.552
34.582,34.643
34.623,34.744
34.672,34.852
34.729,34.966
34.795,35.084
34.87,35.206
34.953,35.331
35.042,35.457
35.135,35.582
35.231,35.706
35.327,35.826
35.421,35.941
35.511,36.047
35.596,36.145
35.674,36.234
35.742,36.314
35.799,36.387
35.843,36.45
35.875,36.506
35.894,36.554
35.901,36.595
35.898,36.632
35.886,36.666
35.868,36.697
35.844,36.728
35.818,36.759
35.791,36.789
35.765,36.817
35.741,36.842
35.722,36.862
35.706,36.877
35.696,36.888
35.691,36.894
35.69,36.897
35.693,36.898
35.7,36.897
35.709,36.895
35.72,36.893
35.732,36.891
35.745,36.889
35.757,36.887
35.767,36.885
35.775,36.883
35.78,36.882
35.781,36.879
35.778,36.874
35.772,36.866
35.761,36.856
35.746,36.842
35.728,36.824
35.707,36.804
35.685,36.782
35.661,36.757
35.638,36.73
35.618,36.702
35.601,36.671
35.588,36.64
35.58,36.606
35.576,36.571
35.576,36.535
35.579,36.5
35.584,36.467
35.591,36.437
35.598,36.41
35.606,36.387
35.612,36.369
35.616,36.356
35.618,36.348
35.615,36.345
35.609,36.345
35.598,36.348
35.583,36.352
35.564,36.356
35.543,36.36
35.522,36.364
35.501,36.368
35.482,36.372
35.466,36.376
35.455,36.381
35.448,36.386
35.446,36.391
35.448,36.395
35.452,36.398
35.459,36.4
35.468,36.398
35.478,36.394
35.489,36.386
35.499,36.374
35.508,36.36
35.514,36.344
35.518,36.325
35.519,36.304
35.516,36.281
35.511,36.258
35.502,36.234
35.491,36.211
35.476,36.189
35.458,36.166
35.438,36.143
35.417,36.118
35.394,36.09
35.37,36.06
35.348,36.028
35.327,35.995
35.308,35.963
35.292,35.932
35.279,35.902
35.267,35.873
35.258,35.845
35.25,35.817
35.242,35.788
35.235,35.76
35.229,35.732
35.221,35.705
35.212,35.679
35.201,35.654
35.189,35.63
35.177,35.606
35.166,35.582
35.156,35.559
35.147,35.536
35.138,35.513
35.128,35.49
35.119,35.467
35.108,35.446
35.097,35.425
35.084,35.405
35.071,35.385
35.057,35.365
35.042,35.344
35.028,35.323
35.015,35.302
35.002,35.282
34.99,35.263
34.979,35.245
34.969,35.229
34.962,35.213
34.956,35.199
34.953,35.185
34.953,35.171
34.955,35.157
34.957,35.141
34.959,35.126
34.961,35.11
34.96,35.094
34.957,35.078
34.95,35.062
34.94,35.045
34.926,35.028
34.91,35.01
34.891,34.991
34.872,34.973
34.852,34.955
34.833,34.94
34.816,34.926
34.803,34.914
34.794,34.904
34.79,34.896
34.79,34.889
34.794,34.883
34.801,34.877
34.811,34.871
34.824,34.865
34.836,34.859
34.848,34.852
34.858,34.845
34.864,34.838
34.866,34.831
34.861,34.823
34.851,34.815
34.837,34.805
34.819,34.793
34.799,34.78
34.777,34.765
34.755,34.749
34.733,34.731
34.713,34.71
34.695,34.688
34.68,34.663
34.669,34.638
34.662,34.613
34.66,34.589
34.661,34.566
34.666,34.546
34.673,34.526
34.681,34.507
34.69,34.489
34.699,34.471
34.707,34.453
34.714,34.436
34.719,34.42
34.721,34.407
34.718,34.396
34.711,34.387
34.699,34.379
34.682,34.373
34.661,34.367
34.636,34.361
34.608,34.352
34.58,34.342
34.553,34.33
34.529,34.316
34.51,34.301
34.496,34.286
34.487,34.269
34.485,34.253
34.488,34.237
34.495,34.222
34.507,34.21
34.521,34.2
34.536,34.195
34.553,34.193
34.57,34.197
34.59,34.208
34.612,34.226
34.636,34.255
34.665,34.297
34.699,34.352
34.738,34.423
34.782,34.507
34.832,34.603
34.887,34.707
34.95,34.819
35.019,34.936
35.094,35.056
35.174,35.18
35.257,35.305
35.342,35.432
35.426,35.56
35.509,35.685
35.588,35.806
35.663,35.92
35.733,36.027
35.797,36.125
35.852,36.214
35.9,36.293
35.939,36.363
35.969,36.426
35.992,36.481
36.007,36.529
36.016,36.57
36.017,36.605
36.013,36.636
36.004,36.662
35.991,36.686
35.976,36.707
35.958,36.726
35.938,36.742
35.919,36.756
35.9,36.765
35.883,36.772
35.87,36.777
35.86,36.78
35.855,36.782
35.855,36.783
35.86,36.784
35.87,36.785
35.884,36.786
35.9,36.788
35.918,36.79
35.937,36.794
35.955,36.798
35.972,36.804
35.986,36.809
35.997,36.813
36.003,36.815
36.004,36.814
35.999,36.81
35.991,36.802
35.978,36.791
35.963,36.776
35.946,36.756
35.927,36.733
35.906,36.707
35.885,36.677
35.863,36.646
35.841,36.614
35.819,36.581
35.797,36.55
35.776,36.52
35.757,36.492
35.739,36.465
35.724,36.438
35.713,36.412
35.704,36.387
35.7,36.364
35.699,36.344
35.702,36.327
35.708,36.314
35.717,36.304
35.727,36.299
35.738,36.297
35.747,36.298
35.753,36.299
35.756,36.301
35.755,36.303
35.75,36.304
35.74,36.307
35.725,36.309
35.706,36.312
35.685,36.314
35.663,36.315
35.643,36.315
35.625,36.312
35.611,36.309
35.602,36.306
35.599,36.302
35.601,36.298
35.608,36.291
35.618,36.28
35.631,36.266
35.646,36.249
35.659,36.23
35.672,36.211
35.682,36.19
35.689,36.17
35.691,36.149
35.688,36.129
35.682,36.11
35.673,36.091
35.659,36.072
35.643,36.053
35.623,36.031
35.602,36.006
35.579,35.979
35.555,35.95
35.532,35.921
35.51,35.891
35.487,35.86
35.463,35.831
35.439,35.802
35.414,35.775
35.39,35.749
35.367,35.723
35.347,35.696
35.33,35.668
35.317,35.639
35.308,35.608
35.302,35.576
35.298,35.543
35.298,35.511
35.299,35.478
35.303,35.447
35.308,35.416
35.315,35.386
35.322,35.356
35.326,35.326
35.328,35.298
35.326,35.27
35.32,35.243
35.308,35.218
35.291,35.195
35.27,35.175
35.247,35.157
35.222,35.142
35.198,35.128
35.174,35.116
35.154,35.107
35.136,35.099
35.124,35.093
35.115,35.087
35.111,35.08
35.111,35.07
35.115,35.058
35.122,35.043
35.129,35.025
35.137,35.007
35.144,34.99
35.149,34.975
35.15,34.966
35.147,34.967
35.139,34.978
35.126,34.995
35.108,35.016
35.086,35.038
35.062,35.057
35.035,35.07
35.008,35.073
34.981,35.066
34.954,35.049
34.927,35.021
34.901,34.986
34.876,34.944
34.856,34.898
34.84,34.85
34.829,34.801
34.824,34.754
34.824,34.709
34.828,34.668
34.835,34.631
34.844,34.599
34.853,34.572
34.863,34.551
34.872,34.534
34.878,34.522
34.881,34.513
34.879,34.507
34.871,34.502
34.858,34.498
34.84,34.493
34.818,34.487
34.793,34.481
34.768,34.475
34.743,34.469
34.72,34.462
34.701,34.454
34.686,34.444
34.675,34.429
34.67,34.412
34.669,34.392
34.671,34.369
34.677,34.346
34.683,34.322
34.69,34.299
34.694,34.275
34.696,34.252
34.694,34.23
34.689,34.209
34.679,34.189
34.667,34.172
34.651,34.156
34.632,34.142
34.611,34.128
34.589,34.115
34.567,34.103
34.546,34.092
34.528,34.082
34.511,34.074
34.499,34.067
34.49,34.061
34.485,34.056
34.485,34.052
34.489,34.05
34.498,34.052
34.512,34.06
34.534,34.077
34.563,34.105
34.599,34.146
34.644,34.201
34.698,34.271
34.76,34.355
34.831,34.451
34.911,34.558
34.998,34.673
35.091,34.797
35.188,34.926
35.287,35.06
35.386,35.197
35.482,35.333
35.575,35.467
35.662,35.596
35.742,35.719
35.815,35.835
35.881,35.945
35.939,36.048
35.991,36.145
36.036,36.234
36.075,36.313
36.111,36.382
36.142,36.439
36.17,36.486
36.195,36.525
36.218,36.555
36.237,36.578
36.254,36.596
36.268,36.61
36.28,36.623
36.289,36.634
36.293,36.645
36.294,36.655
36.292,36.664
36.286,36.671
36.278,36.676
36.269,36.679
36.258,36.679
36.248,36.678
36.237,36.674
36.228,36.667
36.22,36.659
36.214,36.65
36.212,36.641
36.213,36.632
36.217,36.623
36.224,36.614
36.233,36.604
36.242,36.594
36.251,36.583
36.26,36.571
36.267,36.557
36.274,36.541
36.279,36.523
36.28,36.502
36.279,36.479
36.275,36.453
36.268,36.426
36.26,36.399
36.251,36.374
36.241,36.349
36.232,36.326
36.222,36.304
36.214,36.283
36.206,36.262
36.198,36.24
36.19,36.216
36.181,36.192
36.173,36.167
36.163,36.144
36.153,36.123
36.14,36.106
36.125,36.091
36.109,36.08
36.092,36.069
36.075,36.06
36.059,36.053
36.042,36.047
36.027,36.044
36.013,36.044
36.001,36.047
35.993,36.052
35.988,36.058
35.986,36.063
35.989,36.067
35.994,36.071
36.003,36.073
36.014,36.075
36.026,36.077
36.038,36.079
36.048,36.081
36.055,36.083
36.059,36.083
36.058,36.079
36.053,36.071
36.043,36.056
36.028,36.037
36.008,36.012
35.985,35.984
35.959,35.953
35.933,35.92
35.907,35.886
35.881,35.851
35.858,35.816
35.838,35.78
35.82,35.746
35.804,35.711
35.791,35.675
35.78,35.639
35.772,35.603
35.766,35.568
35.762,35.534
35.759,35.503
35.757,35.475
35.755,35.45
35.752,35.425
35.749,35.401
35.744,35.378
35.736,35.355
35.724,35.333
35.709,35.312
35.689,35.291
35.665,35.271
35.639,35.251
35.61,35.23
35.579,35.21
35.547,35.19
35.515,35.17
35.484,35.15
35.456,35.131
35.43,35.112
35.409,35.094
35.392,35.076
35.38,35.058
35.374,35.04
35.372,35.022
35.374,35.003
35.379,34.984
35.386,34.965
35.394,34.945
35.401,34.924
35.406,34.903
35.408,34.88
35.405,34.858
35.398,34.836
35.384,34.816
35.365,34.797
35.341,34.78
35.314,34.765
35.284,34.753
35.252,34.742
35.22,34.731
35.19,34.721
35.164,34.71
35.142,34.7
35.127,34.689
35.119,34.679
35.118,34.668
35.123,34.657
35.134,34.645
35.148,34.633
35.164,34.62
35.179,34.605
35.192,34.588
35.201,34.568
35.203,34.547
35.2,34.526
35.189,34.505
35.173,34.485
35.152,34.468
35.127,34.453
35.101,34.439
35.074,34.428
35.047,34.418
35.023,34.41
35.002,34.403
34.985,34.395
34.973,34.387
34.966,34.376
34.964,34.362
34.965,34.346
34.968,34.327
34.972,34.308
34.976,34.29
34.979,34.274
34.979,34.259
34.976,34.247
34.97,34.234
34.961,34.219
34.95,34.204
34.936,34.187
34.919,34.171
34.9,34.157
34.877,34.144
34.853,34.133
34.826,34.123
34.799,34.114
34.773,34.105
34.751,34.098
34.731,34.09
34.716,34.083
34.706,34.076
34.701,34.068
34.699,34.06
34.701,34.052
34.705,34.044
34.711,34.038
34.717,34.033
34.72,34.032
34.719,34.035
34.713,34.044
34.703,34.058
34.688,34.08
34.669,34.111
34.649,34.15
34.63,34.198
34.615,34.256
34.606,34.325
34.606,34.406
34.618,34.498
34.644,34.601
34.684,34.715
34.74,34.835
34.811,34.96
34.897,35.088
34.997,35.216
35.107,35.343
35.224,35.467
35.346,35.587
35.469,35.703
35.589,35.811
35.704,35.912
35.81,36.005
35.905,36.089
35.988,36.164
36.057,36.231
36.113,36.287
36.156,36.334
36.188,36.371
36.211,36.398
36.225,36.417
36.234,36.43
36.238,36.436
36.24,36.439
36.242,36.438
36.245,36.436
36.251,36.432
36.26,36.427
36.271,36.421
36.285,36.415
36.3,36.406
36.318,36.397
36.335,36.386
36.352,36.375
36.368,36.364
36.382,36.352
36.393,36.339
36.398,36.325
36.399,36.312
36.393,36.299
36.382,36.287
36.366,36.277
36.346,36.269
36.324,36.263
36.3,36.258
36.276,36.25
36.254,36.24
36.235,36.226
36.219,36.209
36.208,36.19
36.201,36.169
36.197,36.147
36.196,36.124
36.198,36.102
36.201,36.079
36.205,36.058
36.209,36.036
36.211,36.016
36.212,35.996
36.21,35.977
36.206,35.959
36.197,35.942
36.185,35.925
36.168,35.91
36.148,35.896
36.124,35.883
36.098,35.872
36.07,35.863
36.043,35.853
36.017,35.841
35.994,35.825
35.975,35.805
35.961,35.785
35.952,35.763
35.946,35.743
35.943,35.726
35.942,35.715
35.944,35.71
35.948,35.712
35.953,35.719
35.96,35.729
35.966,35.74
35.97,35.752
35.97,35.763
35.968,35.772
35.962,35.779
35.953,35.782
35.942,35.78
35.929,35.775
35.914,35.766
35.898,35.752
35.882,35.735
35.866,35.715
35.851,35.692
35.837,35.667
35.826,35.641
35.816,35.613
35.809,35.583
35.802,35.553
35.795,35.522
35.788,35.49
35.778,35.458
35.765,35.426
35.749,35.394
35.727,35.363
35.7,35.334
35.668,35.305
35.633,35.276
35.596,35.247
35.559,35.218
35.524,35.189
35.491,35.162
35.463,35.136
35.441,35.112
35.424,35.09
35.414,35.068
35.41,35.048
35.411,35.029
35.416,35.01
35.424,34.992
35.434,34.975
35.443,34.959
35.451,34.943
35.454,34.925
35.453,34.908
35.446,34.89
35.434,34.872
35.417,34.856
35.394,34.84
35.368,34.823
35.338,34.807
35.307,34.79
35.275,34.773
35.242,34.755
35.211,34.738
35.181,34.721
35.154,34.705
35.129,34.691
35.107,34.679
35.089,34.67
35.075,34.664
35.064,34.661
35.058,34.658
35.056,34.656
35.058,34.652
35.069,34.647
35.087,34.64
35.113,34.632
35.143,34.624
35.173,34.616
35.201,34.607
35.222,34.598
35.233,34.588
35.234,34.578
35.222,34.566
35.197,34.555
35.162,34.544
35.118,34.534
35.068,34.524
35.015,34.513
34.96,34.502
34.906,34.49
34.856,34.477
34.813,34.465
34.778,34.454
34.751,34.444
34.734,34.434
34.727,34.424
34.729,34.414
34.738,34.403
34.753,34.391
34.772,34.38
34.792,34.368
34.812,34.358
34.829,34.348
34.841,34.34
34.849,34.331
34.849,34.323
34.842,34.314
34.828,34.302
34.808,34.288
34.783,34.271
34.754,34.25
34.724,34.226
34.692,34.2
34.662,34.173
34.633,34.145
34.608,34.118
34.588,34.091
34.573,34.065
34.564,34.042
34.559,34.021
34.56,34.005
34.564,33.994
34.57,33.988
34.577,33.988
34.585,33.994
34.591,34.007
34.595,34.025
34.596,34.052
34.593,34.086
34.584,34.128
34.57,34.179
34.549,34.237
34.523,34.304
34.491,34.38
34.456,34.464
34.421,34.557
34.388,34.656
34.361,34.761
34.34,34.871
34.328,34.983
34.328,35.097
34.339,35.21
34.363,35.322
34.4,35.43
34.45,35.531
34.512,35.624
34.584,35.708
34.665,35.782
34.753,35.848
34.845,35.906
34.939,35.956
35.033,36.001
35.124,36.041
35.213,36.076
35.297,36.106
35.376,36.131
35.45,36.152
35.519,36.169
35.582,36.182
35.641,36.193
35.695,36.202
35.744,36.208
35.79,36.214
35.831,36.219
35.869,36.225
35.905,36.229
35.938,36.232
35.969,36.233
35.996,36.232
36.018,36.229
36.035,36.226
36.049,36.222
36.057,36.218
36.06,36.214
36.06,36.209
36.056,36.201
36.049,36.192
36.039,36.183
36.026,36.174
36.012,36.167
35.994,36.162
35.969,36.158
35.938,36.155
35.904,36.149
35.869,36.141
35.838,36.128
35.811,36.112
35.792,36.093
35.781,36.072
35.778,36.05
35.784,36.028
35.798,36.005
35.817,35.983
35.841,35.96
35.867,35.938
35.892,35.914
35.916,35.891
35.937,35.868
35.954,35.848
35.967,35.829
35.978,35.814
35.985,35.803
35.988,35.797
35.987,35.794
35.981,35.794
35.972,35.796
35.959,35.8
35.944,35.803
35.925,35.805
35.905,35.807
35.882,35.807
35.858,35.806
35.833,35.804
35.808,35.8
35.783,35.795
35.761,35.788
35.741,35.78
35.723,35.77
35.709,35.759
35.697,35.748
35.687,35.736
35.68,35.724
35.674,35.71
35.67,35.694
35.667,35.677
35.663,35.658
35.66,35.639
35.655,35.619
35.65,35.601
35.645,35.582
35.64,35.564
35.635,35.545
35.631,35.525
35.627,35.504
35.624,35.481
35.62,35.456
35.616,35.428
35.612,35.399
35.609,35.367
35.605,35.335
35.602,35.303
35.597,35.274
35.591,35.247
35.583,35.222
35.573,35.199
35.56,35.175
35.545,35.152
35.527,35.128
35.506,35.104
35.482,35.08
35.455,35.058
35.426,35.038
35.398,35.019
35.37,35.002
35.344,34.987
35.321,34.972
35.301,34.959
35.284,34.948
35.27,34.939
35.259,34.931
35.252,34.925
35.246,34.919
35.241,34.913
35.237,34.906
35.233,34.898
35.227,34.89
35.22,34.881
35.211,34.872
35.201,34.864
35.189,34.856
35.176,34.846
35.16,34.834
35.144,34.819
35.128,34.801
35.111,34.781
35.093,34.761
35.076,34.743
35.058,34.725
35.041,34.71
35.025,34.697
35.009,34.684
34.994,34.672
34.98,34.661
34.966,34.65
34.955,34.64
34.945,34.63
34.938,34.621
34.932,34.613
34.93,34.606
34.93,34.6
34.933,34.595
34.936,34.592
34.938,34.59
34.94,34.59
34.94,34.589
34.939,34.587
34.933,34.584
34.924,34.579
34.911,34.572
34.894,34.562
34.874,34.55
34.852,34.535
34.83,34.519
34.808,34.503
34.786,34.486
34.766,34.469
34.748,34.451
34.732,34.431
34.72,34.409
34.711,34.386
34.706,34.363
34.705,34.34
34.707,34.318
34.71,34.296
34.714,34.277
34.717,34.258
34.718,34.241
34.717,34.226
34.713,34.213
34.705,34.201
34.694,34.189
34.679,34.178
34.662,34.166
34.644,34.153
34.623,34.14
34.603,34.126
34.583,34.114
34.565,34.103
34.549,34.094
34.537,34.086
34.529,34.079
34.525,34.073
34.526,34.069
34.53,34.067
34.536,34.07
34.542,34.078
34.549,34.094
34.552,34.118
34.552,34.153
34.548,34.199
34.54,34.256
34.529,34.325
34.517,34.405
34.505,34.494
34.492,34.588
34.481,34.687
34.471,34.79
34.463,34.896
34.455,35.004
34.449,35.112
34.444,35.218
34.44,35.322
34.437,35.422
34.435,35.517
34.435,35.608
34.437,35.692
34.441,35.769
34.451,35.837
34.466,35.897
34.487,35.947
34.516,35.99
34.553,36.026
34.599,36.057
34.655,36.084
34.719,36.108
34.791,36.129
34.87,36.147
34.956,36.161
35.045,36.174
35.138,36.183
35.231,36.192
35.324,36.198
35.413,36.201
35.498,36.203
35.576,36.204
35.648,36.204
35.714,36.205
35.773,36.207
35.826,36.21
35.872,36.214
35.912,36.218
35.946,36.222
35.973,36.227
35.993,36.232
36.007,36.236
36.015,36.239
36.017,36.241
36.012,36.242
36.003,36.24
35.988,36.238
35.97,36.234
35.948,36.23
35.926,36.224
35.905,36.214
35.886,36.201
35.871,36.184
35.861,36.162
35.856,36.137
35.856,36.108
35.862,36.077
35.873,36.043
35.888,36.009
35.907,35.974
35.928,35.94
35.948,35.908
35.967,35.879
35.982,35.854
35.994,35.833
36,35.815
35.999,35.8
35.993,35.789
35.981,35.78
35.963,35.774
35.94,35.77
35.913,35.768
35.883,35.769
35.851,35.771
35.82,35.776
35.789,35.781
35.76,35.786
35.735,35.789
35.714,35.789
35.698,35.787
35.688,35.782
35.683,35.776
35.683,35.768
35.686,35.759
35.694,35.749
35.703,35.737
35.715,35.724
35.727,35.71
35.738,35.695
35.747,35.679
35.754,35.664
35.757,35.648
35.756,35.633
35.75,35.618
35.74,35.603
35.727,35.588
35.712,35.574
35.695,35.559
35.678,35.543
35.662,35.526
35.646,35.509
35.632,35.492
35.621,35.474
35.611,35.455
35.603,35.436
35.595,35.416
35.588,35.395
35.58,35.374
35.572,35.354
35.563,35.336
35.553,35.319
35.544,35.303
35.534,35.289
35.524,35.274
35.514,35.26
35.503,35.245
35.493,35.229
35.483,35.212
35.473,35.193
35.462,35.172
35.45,35.151
35.439,35.129
35.427,35.107
35.415,35.085
35.402,35.064
35.389,35.042
35.376,35.019
35.362,34.996
35.347,34.973
35.33,34.949
35.311,34.925
35.29,34.903
35.267,34.882
35.242,34.863
35.216,34.846
35.192,34.829
35.169,34.814
35.149,34.799
35.132,34.785
35.119,34.772
35.111,34.761
35.107,34.75
35.108,34.739
35.112,34.726
35.119,34.713
35.127,34.7
35.134,34.687
35.139,34.674
35.14,34.661
35.137,34.649
35.13,34.636
35.118,34.623
35.103,34.609
35.085,34.594
35.064,34.579
35.042,34.564
35.02,34.55
34.997,34.537
34.975,34.525
34.954,34.515
34.935,34.507
34.918,34.5
34.905,34.495
34.894,34.489
34.886,34.481
34.881,34.472
34.878,34.461
34.877,34.449
34.878,34.435
34.88,34.422
34.882,34.409
34.885,34.397
34.887,34.386
34.888,34.374
34.888,34.363
34.886,34.351
34.883,34.339
34.879,34.327
34.872,34.315
34.862,34.303
34.85,34.29
34.835,34.276
34.817,34.262
34.797,34.248
34.776,34.234
34.754,34.223
34.732,34.214
34.71,34.207
34.69,34.203
34.672,34.2
34.656,34.195
34.644,34.189
34.635,34.181
34.631,34.173
34.63,34.167
34.632,34.163
34.638,34.164
34.646,34.17
34.656,34.181
34.667,34.198
34.678,34.22
34.688,34.249
34.697,34.286
34.703,34.334
34.706,34.394
34.705,34.464
34.7,34.544
34.691,34.632
34.678,34.727
34.661,34.828
34.639,34.933
34.614,35.043
34.588,35.155
34.56,35.27
34.532,35.383
34.504,35.494
34.48,35.6
34.459,35.698
34.443,35.788
34.433,35.869
34.43,35.941
34.432,36.002
34.439,36.055
34.45,36.099
34.464,36.136
34.481,36.165
34.5,36.188
34.521,36.204
34.543,36.215
34.565,36.22
34.588,36.222
34.613,36.221
34.638,36.217
34.667,36.21
34.698,36.202
34.733,36.191
34.772,36.178
34.816,36.165
34.867,36.153
34.925,36.14
34.991,36.128
35.063,36.117
35.142,36.108
35.227,36.101
35.317,36.097
35.41,36.096
35.504,36.098
35.597,36.102
35.688,36.107
35.774,36.113
35.852,36.12
35.922,36.127
35.982,36.133
36.03,36.138
36.066,36.141
36.091,36.141
36.105,36.138
36.109,36.134
36.105,36.126
36.095,36.115
36.079,36.1
36.06,36.08
36.039,36.057
36.018,36.031
35.997,36.004
35.979,35.977
35.963,35.951
35.951,35.926
35.943,35.901
35.938,35.878
35.936,35.855
35.937,35.835
35.941,35.818
35.948,35.803
35.956,35.79
35.966,35.778
35.977,35.767
35.988,35.757
35.999,35.747
36.007,35.736
36.012,35.726
36.015,35.715
36.014,35.705
36.011,35.695
36.005,35.685
35.999,35.677
35.991,35.668
35.982,35.66
35.972,35.652
35.96,35.643
35.946,35.634
35.931,35.625
35.915,35.615
35.896,35.606
35.876,35.597
35.855,35.586
35.834,35.575
35.814,35.562
35.795,35.549
35.776,35.536
35.759,35.523
35.743,35.509
35.729,35.494
35.717,35.477
35.708,35.458
35.703,35.436
35.7,35.412
35.701,35.387
35.703,35.362
35.708,35.336
35.713,35.312
35.719,35.289
35.725,35.266
35.73,35.245
35.735,35.225
35.74,35.205
35.742,35.185
35.744,35.166
35.743,35.148
35.741,35.131
35.736,35.115
35.729,35.1
35.72,35.085
35.708,35.072
35.693,35.061
35.677,35.052
35.661,35.044
35.645,35.037
35.63,35.031
35.616,35.025
35.603,35.018
35.591,35.009
35.579,34.999
35.565,34.987
35.551,34.973
35.536,34.957
35.519,34.94
35.5,34.92
35.48,34.899
35.459,34.876
35.437,34.85
35.414,34.821
35.392,34.789
35.372,34.754
35.355,34.717
35.341,34.681
35.331,34.648
35.324,34.62
35.32,34.599
35.318,34.585
35.319,34.578
35.32,34.577
35.321,34.583
35.323,34.593
35.323,34.605
35.321,34.619
35.316,34.631
35.307,34.641
35.294,34.646
35.277,34.647
35.255,34.644
35.23,34.638
35.202,34.629
35.174,34.618
35.146,34.605
35.12,34.59
35.097,34.571
35.078,34.551
35.064,34.529
35.054,34.507
35.048,34.484
35.046,34.46
35.046,34.437
35.048,34.413
35.051,34.391
35.055,34.37
35.06,34.352
35.065,34.339
35.07,34.329
35.073,34.321
35.074,34.314
35.073,34.307
35.069,34.298
35.063,34.287
35.054,34.275
35.042,34.262
35.029,34.249
35.012,34.234
34.993,34.22
34.972,34.206
34.948,34.193
34.923,34.181
34.898,34.168
34.872,34.157
34.847,34.145
34.822,34.135
34.797,34.126
34.776,34.12
34.757,34.119
34.742,34.124
34.731,34.138
34.724,34.16
34.722,34.193
34.723,34.235
34.728,34.288
34.736,34.351
34.746,34.422
34.757,34.501
34.768,34.587
34.779,34.679
34.788,34.776
34.794,34.879
34.796,34.985
34.793,35.093
34.785,35.201
34.772,35.308
34.755,35.41
34.733,35.507
34.709,35.596
34.682,35.677
34.655,35.749
34.629,35.813
34.604,35.867
34.583,35.912
34.565,35.949
34.553,35.979
34.544,36.004
34.539,36.024
34.537,36.04
34.536,36.055
34.537,36.069
34.539,36.081
34.54,36.094
34.541,36.104
34.542,36.114
34.543,36.121
34.542,36.127
34.541,36.131
34.54,36.135
34.537,36.139
34.534,36.144
34.53,36.149
34.526,36.154
34.523,36.157
34.521,36.159
34.523,36.159
34.53,36.157
34.543,36.153
34.564,36.147
34.594,36.14
34.635,36.134
34.686,36.127
34.747,36.121
34.819,36.114
34.9,36.106
34.988,36.097
35.084,36.087
35.186,36.076
35.29,36.064
35.396,36.05
35.499,36.033
35.598,36.012
35.69,35.987
35.774,35.957
35.849,35.924
35.914,35.889
35.967,35.853
36.008,35.819
36.039,35.785
36.054,35.755
36.054,35.727
36.038,35.704
36.011,35.686
35.977,35.673
35.939,35.664
35.901,35.658
35.867,35.654
35.837,35.652
35.816,35.65
35.804,35.649
35.802,35.649
35.81,35.649
35.826,35.649
35.848,35.649
35.876,35.648
35.907,35.648
35.941,35.647
35.975,35.645
36.007,35.642
36.037,35.637
36.062,35.631
36.084,35.621
36.101,35.609
36.114,35.595
36.122,35.58
36.125,35.565
36.124,35.55
36.12,35.536
36.113,35.523
36.103,35.512
36.09,35.501
36.076,35.491
36.059,35.482
36.042,35.47
36.022,35.456
36.001,35.441
35.979,35.424
35.956,35.406
35.931,35.389
35.906,35.372
35.882,35.355
35.857,35.339
35.834,35.323
35.812,35.308
35.793,35.291
35.776,35.274
35.761,35.256
35.749,35.236
35.74,35.215
35.737,35.191
35.744,35.166
35.761,35.141
35.788,35.117
35.821,35.094
35.857,35.072
35.892,35.053
35.922,35.035
35.946,35.018
35.961,35.003
35.967,34.989
35.964,34.974
35.952,34.958
35.932,34.941
35.905,34.923
35.873,34.906
35.837,34.889
35.798,34.875
35.758,34.861
35.717,34.849
35.677,34.836
35.637,34.821
35.6,34.805
35.566,34.787
35.535,34.769
35.509,34.752
35.486,34.737
35.466,34.723
35.45,34.71
35.438,34.697
35.428,34.683
35.423,34.67
35.421,34.656
35.422,34.643
35.427,34.632
35.434,34.622
35.441,34.614
35.448,34.607
35.453,34.599
35.455,34.591
35.454,34.583
35.45,34.575
35.441,34.568
35.428,34.564
35.412,34.562
35.391,34.562
35.366,34.565
35.339,34.569
35.31,34.574
35.28,34.578
35.249,34.581
35.218,34.581
35.188,34.581
35.159,34.577
35.131,34.571
35.105,34.562
35.081,34.548
35.061,34.53
35.044,34.509
35.032,34.485
35.023,34.46
35.02,34.436
35.02,34.412
35.024,34.389
35.03,34.366
35.038,34.343
35.047,34.322
35.056,34.304
35.062,34.288
35.066,34.276
35.066,34.267
35.062,34.261
35.054,34.256
35.043,34.253
35.028,34.252
35.011,34.252
34.992,34.256
34.972,34.263
34.953,34.274
34.936,34.291
34.922,34.315
34.911,34.346
34.903,34.386
34.899,34.435
34.897,34.493
34.899,34.56
34.902,34.635
34.905,34.716
34.909,34.802
34.912,34.891
34.914,34.984
34.913,35.077
34.909,35.17
34.902,35.262
34.893,35.352
34.883,35.439
34.871,35.523
34.859,35.602
34.847,35.677
34.837,35.746
34.827,35.807
34.819,35.861
34.811,35.908
34.805,35.946
34.798,35.978
34.792,36.002
34.784,36.02
34.777,36.032
34.768,36.039
34.759,36.043
34.748,36.046
34.734,36.047
34.718,36.048
34.699,36.048
34.678,36.048
34.655,36.046
34.631,36.045
34.607,36.043
34.583,36.042
34.56,36.04
34.541,36.039
34.525,36.038
34.513,36.038
34.504,36.04
34.499,36.041
34.496,36.043
34.496,36.045
34.498,36.045
34.502,36.045
34.506,36.044
34.512,36.043
34.518,36.041
34.526,36.038
34.537,36.034
34.552,36.026
34.572,36.015
34.599,36
34.635,35.984
34.681,35.966
34.736,35.946
34.8,35.925
34.873,35.902
34.954,35.879
35.04,35.855
35.13,35.83
35.223,35.805
35.315,35.78
35.406,35.756
35.493,35.731
35.575,35.708
35.65,35.685
35.717,35.665
35.775,35.647
35.822,35.633
35.86,35.623
35.888,35.617
35.908,35.616
35.921,35.617
35.928,35.622
35.93,35.626
35.928,35.629
35.923,35.629
35.918,35.626
35.915,35.619
35.913,35.61
35.913,35.599
35.916,35.589
35.92,35.579
35.925,35.57
35.93,35.563
35.934,35.556
35.936,35.55
35.937,35.546
35.936,35.543
35.934,35.54
35.929,35.536
35.922,35.531
35.914,35.524
35.904,35.516
35.893,35.506
35.884,35.496
35.876,35.486
35.871,35.475
35.869,35.464
35.869,35.452
35.872,35.438
35.877,35.421
35.884,35.401
35.892,35.379
35.901,35.354
35.909,35.326
35.917,35.296
35.922,35.266
35.923,35.237
35.921,35.209
35.914,35.184
35.903,35.161
35.887,35.14
35.867,35.12
35.844,35.101
35.817,35.085
35.789,35.07
35.76,35.057
35.731,35.045
35.704,35.034
35.678,35.023
35.655,35.012
35.634,35.001
35.617,34.991
35.603,34.982
35.592,34.973
35.584,34.963
35.58,34.951
35.577,34.937
35.577,34.919
35.577,34.899
35.578,34.877
35.578,34.855
35.577,34.834
35.576,34.814
35.575,34.796
35.573,34.78
35.57,34.766
35.567,34.753
35.564,34.742
35.561,34.732
35.559,34.723
35.558,34.716
35.558,34.71
35.559,34.705
35.56,34.7
35.562,34.697
35.562,34.693
35.559,34.689
35.553,34.684
35.544,34.677
35.529,34.67
35.509,34.662
35.484,34.654
35.454,34.644
35.42,34.633
35.384,34.619
35.348,34.605
35.313,34.59
35.282,34.574
35.254,34.558
35.231,34.543
35.213,34.529
35.199,34.516
35.189,34.504
35.184,34.494
35.181,34.484
35.181,34.474
35.18,34.464
35.178,34.453
35.174,34.443
35.167,34.433
35.157,34.423
35.144,34.415
35.128,34.412
35.11,34.419
35.091,34.434
35.071,34.455
35.052,34.48
35.033,34.504
35.017,34.525
35.003,34.539
34.992,34.546
34.986,34.543
34.982,34.53
34.982,34.508
34.984,34.476
34.986,34.438
34.987,34.395
34.987,34.348
34.985,34.3
34.979,34.252
34.969,34.206
34.955,34.163
34.938,34.126
34.919,34.097
34.898,34.078
34.877,34.072
34.857,34.078
34.84,34.099
34.826,34.133
34.816,34.18
34.81,34.24
34.808,34.31
34.809,34.39
34.814,34.478
34.821,34.574
34.831,34.677
34.842,34.784
34.853,34.895
34.863,35.009
34.869,35.125
34.872,35.238
34.87,35.347
34.863,35.449
34.85,35.542
34.833,35.626
34.812,35.699
34.788,35.762
34.762,35.814
34.735,35.857
34.709,35.891
34.684,35.917
34.662,35.935
34.643,35.948
34.628,35.955
34.616,35.959
34.608,35.961
34.603,35.961
34.602,35.962
34.604,35.963
34.608,35.965
34.612,35.968
34.617,35.973
34.622,35.979
34.625,35.987
34.627,35.998
34.628,36.013
34.628,36.031
34.626,36.05
34.622,36.069
34.615,36.086
34.606,36.1
34.595,36.111
34.58,36.12
34.562,36.128
34.542,36.136
34.52,36.144
34.499,36.152
34.479,36.159
34.462,36.166
34.451,36.172
34.448,36.176
34.455,36.179
34.474,36.179
34.506,36.177
34.551,36.172
34.61,36.164
34.68,36.152
34.762,36.137
34.853,36.119
34.951,36.099
35.055,36.076
35.163,36.052
35.27,36.027
35.376,36.002
35.478,35.978
35.573,35.957
35.661,35.937
35.741,35.92
35.811,35.905
35.872,35.891
35.923,35.878
35.964,35.867
35.994,35.857
36.014,35.848
36.024,35.841
36.027,35.837
36.024,35.835
36.017,35.836
36.006,35.839
35.993,35.843
35.98,35.846
35.967,35.849
35.957,35.85
35.948,35.848
35.943,35.844
35.941,35.836
35.941,35.824
35.945,35.808
35.952,35.789
35.962,35.767
35.974,35.743
35.988,35.718
36.002,35.692
36.017,35.667
36.031,35.641
36.043,35.616
36.054,35.591
36.062,35.568
36.068,35.545
36.073,35.522
36.074,35.502
36.073,35.484
36.069,35.469
36.061,35.456
36.05,35.446
36.036,35.439
36.019,35.433
35.998,35.428
35.975,35.422
35.949,35.414
35.92,35.404
35.89,35.392
35.858,35.379
35.825,35.365
35.793,35.351
35.763,35.338
35.737,35.325
35.714,35.31
35.696,35.292
35.684,35.273
35.677,35.252
35.676,35.231
35.68,35.21
35.688,35.189
35.699,35.168
35.712,35.147
35.725,35.129
35.738,35.111
35.749,35.095
35.756,35.081
35.76,35.067
35.76,35.054
35.754,35.042
35.743,35.033
35.727,35.024
35.706,35.018
35.681,35.013
35.652,35.008
35.623,35.003
35.595,34.998
35.571,34.992
35.55,34.986
35.535,34.98
35.525,34.973
35.521,34.963
35.522,34.952
35.527,34.939
35.534,34.925
35.541,34.911
35.547,34.897
35.551,34.883
35.551,34.868
35.548,34.851
35.54,34.833
35.528,34.813
35.511,34.792
35.491,34.772
35.467,34.753
35.441,34.734
35.414,34.717
35.389,34.7
35.366,34.684
35.345,34.67
35.328,34.657
35.314,34.646
35.303,34.636
35.294,34.626
35.287,34.617
35.281,34.608
35.275,34.599
35.268,34.591
35.259,34.584
35.247,34.578
35.233,34.573
35.216,34.568
35.197,34.564
35.177,34.56
35.156,34.554
35.135,34.546
35.114,34.536
35.096,34.523
35.08,34.508
35.068,34.491
35.058,34.473
35.052,34.454
35.048,34.435
35.047,34.417
35.047,34.398
35.049,34.381
35.051,34.363
35.054,34.347
35.055,34.334
35.054,34.323
35.05,34.315
35.042,34.309
35.03,34.304
35.015,34.299
34.996,34.292
34.977,34.282
34.958,34.271
34.94,34.26
34.925,34.249
34.912,34.239
34.903,34.229
34.895,34.219
34.89,34.211
34.886,34.205
34.883,34.201
34.881,34.202
34.877,34.208
34.872,34.219
34.865,34.238
34.856,34.264
34.846,34.298
34.834,34.34
34.821,34.393
34.806,34.454
34.791,34.526
34.775,34.607
34.758,34.697
34.743,34.794
34.729,34.895
34.717,35
34.708,35.106
34.701,35.211
34.697,35.314
34.696,35.414
34.696,35.511
34.699,35.603
34.703,35.691
34.708,35.77
34.712,35.842
34.716,35.904
34.718,35.956
34.717,36
34.712,36.034
34.703,36.06
34.69,36.079
34.672,36.092
34.651,36.101
34.626,36.106
34.6,36.11
34.572,36.114
34.546,36.117
34.521,36.121
34.5,36.125
34.482,36.13
34.469,36.134
34.458,36.138
34.451,36.143
34.446,36.15
34.444,36.157
34.445,36.166
34.449,36.176
34.455,36.187
34.464,36.198
34.476,36.21
34.49,36.221
34.508,36.23
34.53,36.237
34.557,36.241
34.591,36.242
34.632,36.239
34.681,36.233
34.737,36.225
34.802,36.215
34.874,36.201
34.952,36.186
35.036,36.169
35.124,36.15
35.214,36.132
35.305,36.113
35.395,36.095
35.483,36.076
35.565,36.055
35.641,36.033
35.709,36.009
35.767,35.984
35.815,35.958
35.853,35.933
35.883,35.911
35.906,35.891
35.922,35.875
35.935,35.863
35.944,35.854
35.951,35.849
35.957,35.847
35.961,35.848
35.963,35.851
35.965,35.857
35.966,35.864
35.966,35.871
35.965,35.876
35.964,35.878
35.962,35.879
35.96,35.878
35.958,35.876
35.955,35.875
35.954,35.873
35.953,35.869
35.954,35.861
35.957,35.851
35.962,35.837
35.968,35.821
35.976,35.803
35.984,35.785
35.992,35.767
36,35.75
36.007,35.733
36.012,35.717
36.015,35.702
36.016,35.686
36.013,35.67
36.006,35.654
35.994,35.637
35.977,35.618
35.955,35.599
35.927,35.58
35.895,35.56
35.859,35.54
35.823,35.52
35.787,35.5
35.754,35.479
35.724,35.457
35.698,35.437
35.678,35.417
35.664,35.399
35.656,35.382
35.654,35.366
35.657,35.35
35.666,35.334
35.676,35.319
35.688,35.302
35.699,35.284
35.707,35.264
35.713,35.244
35.716,35.223
35.716,35.202
35.715,35.183
35.711,35.166
35.706,35.152
35.699,35.14
35.693,35.128
35.686,35.116
35.679,35.102
35.671,35.087
35.663,35.07
35.654,35.053
35.645,35.037
35.633,35.022
35.621,35.008
35.607,34.995
35.591,34.983
35.572,34.972
35.55,34.962
35.525,34.953
35.497,34.945
35.467,34.935
35.436,34.924
35.405,34.912
35.378,34.899
35.355,34.884
35.337,34.869
35.324,34.854
35.317,34.84
35.316,34.828
35.319,34.817
35.326,34.808
35.336,34.8
35.347,34.792
35.358,34.781
35.367,34.769
35.372,34.752
35.373,34.734
35.368,34.714
35.357,34.694
35.341,34.675
35.319,34.658
35.291,34.643
35.258,34.629
35.222,34.615
35.183,34.602
35.142,34.589
35.102,34.578
35.064,34.567
35.029,34.558
34.998,34.551
34.973,34.543
34.955,34.536
34.944,34.529
34.94,34.522
34.942,34.516
34.95,34.512
34.962,34.508
34.976,34.504
34.989,34.499
35.001,34.492
35.011,34.482
35.017,34.47
35.02,34.456
35.019,34.442
35.015,34.43
35.006,34.419
34.993,34.411
34.976,34.404
34.955,34.396
34.931,34.387
34.906,34.377
34.881,34.366
34.858,34.355
34.837,34.342
34.819,34.329
34.805,34.316
34.793,34.305
34.785,34.297
34.779,34.29
34.775,34.284
34.773,34.28
34.773,34.276
34.773,34.273
34.774,34.27
34.773,34.266
34.771,34.259
34.768,34.25
34.764,34.239
34.758,34.226
34.751,34.212
34.744,34.198
34.735,34.185
34.727,34.172
34.721,34.161
34.716,34.15
34.711,34.138
34.706,34.126
34.702,34.115
34.697,34.104
34.692,34.094
34.688,34.085
34.682,34.078
34.674,34.073
34.664,34.069
34.65,34.068
34.634,34.069
34.615,34.074
34.595,34.083
34.575,34.097
34.556,34.117
34.538,34.145
34.523,34.179
34.51,34.222
34.5,34.273
34.492,34.334
34.488,34.405
34.488,34.486
34.49,34.575
34.495,34.674
34.502,34.778
34.51,34.886
34.518,34.996
34.523,35.103
34.527,35.207
34.528,35.306
34.525,35.4
34.518,35.487
34.507,35.566
34.493,35.636
34.477,35.698
34.462,35.751
34.448,35.798
34.438,35.837
34.432,35.871
34.431,35.9
34.437,35.923
34.449,35.941
34.469,35.955
34.498,35.965
34.534,35.972
34.578,35.979
34.629,35.985
34.688,35.992
34.754,35.999
34.826,36.008
34.903,36.018
34.984,36.031
35.068,36.044
35.154,36.059
35.24,36.073
35.325,36.087
35.408,36.1
35.487,36.113
35.563,36.125
35.635,36.137
35.701,36.148
35.761,36.158
35.815,36.168
35.862,36.175
35.902,36.183
35.935,36.19
35.96,36.197
35.977,36.204
35.985,36.209
35.985,36.211
35.977,36.21
35.962,36.206
35.941,36.198
35.918,36.187
35.892,36.172
35.866,36.154
35.842,36.131
35.821,36.106
35.803,36.078
35.79,36.047
35.783,36.017
35.782,35.986
35.787,35.957
35.795,35.929
35.807,35.903
35.821,35.88
35.836,35.861
35.852,35.845
35.868,35.833
35.883,35.824
35.896,35.816
35.907,35.809
35.914,35.805
35.918,35.801
35.919,35.799
35.917,35.799
35.913,35.799
35.908,35.799
35.901,35.8
35.894,35.802
35.886,35.803
35.876,35.804
35.866,35.803
35.854,35.8
35.841,35.795
35.826,35.786
35.809,35.775
35.79,35.762
35.769,35.747
35.744,35.73
35.718,35.712
35.69,35.693
35.661,35.672
35.632,35.649
35.605,35.623
35.581,35.595
35.559,35.565
35.541,35.534
35.528,35.503
35.521,35.473
35.518,35.444
35.519,35.418
35.524,35.395
35.532,35.375
35.542,35.358
35.553,35.345
35.564,35.335
35.575,35.328
35.584,35.321
35.591,35.315
35.595,35.308
35.596,35.299
35.593,35.288
35.586,35.276
35.574,35.264
35.558,35.252
35.539,35.241
35.519,35.23
35.497,35.219
35.474,35.208
35.45,35.196
35.426,35.183
35.402,35.169
35.378,35.154
35.355,35.138
35.332,35.124
35.312,35.11
35.292,35.098
35.275,35.086
35.258,35.074
35.244,35.062
35.231,35.051
35.219,35.04
35.207,35.03
35.197,35.019
35.187,35.008
35.178,34.998
35.17,34.986
35.162,34.974
35.155,34.962
35.149,34.95
35.144,34.938
35.139,34.928
35.134,34.917
35.129,34.907
35.123,34.894
35.116,34.881
35.107,34.865
35.097,34.847
35.086,34.828
35.072,34.808
35.058,34.788
35.043,34.768
35.029,34.749
35.015,34.731
35.001,34.716
34.99,34.702
34.98,34.69
34.972,34.677
34.965,34.664
34.959,34.65
34.954,34.635
34.95,34.619
34.948,34.604
34.945,34.592
34.944,34.581
34.943,34.573
34.942,34.567
34.941,34.564
34.938,34.563
34.935,34.565
34.93,34.57
34.922,34.577
34.913,34.586
34.901,34.593
34.887,34.599
34.87,34.6
34.851,34.596
34.83,34.587
34.808,34.572
34.786,34.553
34.765,34.531
34.747,34.505
34.732,34.477
34.721,34.446
34.714,34.416
34.711,34.386
34.712,34.358
34.716,34.332
34.722,34.309
34.731,34.29
34.74,34.274
34.75,34.263
34.759,34.255
34.764,34.25
34.767,34.248
34.766,34.248
34.761,34.248
34.752,34.248
34.738,34.246
34.723,34.244
34.711,34.239
34.704,34.232
34.704,34.223
34.708,34.212
34.715,34.2
34.724,34.188
34.733,34.177
34.74,34.166
34.744,34.156
34.744,34.146
34.741,34.135
34.734,34.124
34.724,34.111
34.711,34.098
34.697,34.084
34.68,34.072
34.662,34.06
34.644,34.051
34.626,34.045
34.609,34.04
34.592,34.036
34.575,34.033
34.558,34.029
34.541,34.024
34.524,34.018
34.507,34.01
34.491,34.002
34.477,33.993
34.464,33.985
34.452,33.978
34.442,33.971
34.434,33.965
34.428,33.958
34.424,33.952
34.425,33.946
34.428,33.942
34.436,33.942
34.447,33.946
34.463,33.956
34.486,33.974
34.516,34
34.555,34.036
34.602,34.083
34.658,34.142
34.721,34.212
34.793,34.291
34.871,34.379
34.955,34.473
35.045,34.569
35.138,34.666
35.232,34.763
35.327,34.859
35.419,34.953
35.507,35.044
35.59,35.132
35.666,35.215
35.733,35.292
35.791,35.361
35.839,35.423
35.875,35.476
35.9,35.523
35.915,35.563
35.923,35.599
35.923,35.631
35.916,35.659
35.905,35.684
35.89,35.705
35.872,35.721
35.853,35.733
35.834,35.742
35.818,35.749
35.804,35.755
35.793,35.763
35.786,35.772
35.783,35.781
35.783,35.789
35.785,35.796
35.789,35.801
35.794,35.806
35.799,35.809
35.805,35.812
35.811,35.812
35.816,35.811
35.822,35.809
35.829,35.806
35.836,35.803
35.843,35.799
35.851,35.796
35.858,35.793
35.864,35.789
35.869,35.784
35.871,35.779
35.871,35.775
35.867,35.772
35.859,35.769
35.848,35.768
35.834,35.767
35.816,35.766
35.796,35.765
35.774,35.763
35.75,35.761
35.726,35.759
35.703,35.754
35.68,35.747
35.659,35.737
35.641,35.725
35.624,35.709
35.61,35.692
35.599,35.676
35.59,35.66
35.585,35.645
35.581,35.634
35.577,35.625
35.574,35.62
35.57,35.619
35.564,35.621
35.558,35.624
35.552,35.628
35.545,35.632
35.537,35.635
35.53,35.638
35.523,35.64
35.517,35.643
35.511,35.647
35.506,35.65
35.502,35.653
35.498,35.655
35.493,35.654
35.487,35.65
35.479,35.644
35.47,35.636
35.459,35.624
35.447,35.609
35.433,35.592
35.418,35.572
35.402,35.55
35.385,35.527
35.368,35.504
35.349,35.481
35.329,35.458
35.309,35.436
35.29,35.416
35.271,35.397
35.255,35.378
35.24,35.359
35.226,35.339
35.215,35.318
35.205,35.297
35.197,35.277
35.192,35.259
35.189,35.244
35.187,35.231
35.187,35.22
35.188,35.209
35.191,35.198
35.195,35.186
35.199,35.173
35.205,35.159
35.21,35.145
35.215,35.132
35.219,35.119
35.222,35.107
35.224,35.096
35.224,35.086
35.223,35.076
35.219,35.066
35.214,35.056
35.205,35.046
35.191,35.035
35.174,35.022
35.151,35.007
35.125,34.99
35.096,34.972
35.063,34.952
35.031,34.932
34.999,34.913
34.969,34.895
34.942,34.878
34.919,34.864
34.901,34.852
34.889,34.842
34.882,34.834
34.88,34.826
34.883,34.82
34.89,34.815
34.9,34.811
34.911,34.807
34.925,34.805
34.939,34.8
34.952,34.793
34.965,34.783
34.976,34.77
34.984,34.756
34.989,34.739
34.989,34.722
34.985,34.704
34.976,34.686
34.964,34.668
34.947,34.651
34.927,34.636
34.905,34.624
34.882,34.616
34.858,34.612
34.835,34.612
34.813,34.614
34.793,34.62
34.775,34.626
34.76,34.633
34.747,34.64
34.737,34.646
34.73,34.651
34.727,34.654
34.726,34.656
34.726,34.657
34.725,34.656
34.723,34.653
34.72,34.65
34.715,34.646
34.708,34.641
34.7,34.636
34.691,34.63
34.682,34.623
34.672,34.614
34.663,34.602
34.654,34.588
34.646,34.571
34.639,34.553
34.633,34.535
34.626,34.518
34.62,34.502
34.614,34.489
34.609,34.476
34.602,34.465
34.595,34.455
34.586,34.445
34.576,34.435
34.564,34.427
34.551,34.421
34.536,34.416
34.521,34.414
34.506,34.413
34.492,34.412
34.48,34.411
34.47,34.41
34.461,34.409
34.454,34.407
34.45,34.403
34.448,34.397
34.448,34.389
34.451,34.379
34.456,34.366
34.462,34.353
34.468,34.339
34.476,34.327
34.485,34.316
34.496,34.308
34.509,34.301
34.525,34.296
34.544,34.291
34.568,34.285
34.596,34.28
34.631,34.274
34.671,34.268
34.717,34.263
34.769,34.258
34.825,34.255
34.886,34.252
34.951,34.249
35.02,34.247
35.092,34.244
35.167,34.241
35.245,34.238
35.323,34.234
35.401,34.228
35.476,34.221
35.547,34.212
35.614,34.201
35.675,34.189
35.729,34.176
35.776,34.163
35.816,34.151
35.848,34.139
35.874,34.129
35.892,34.121
35.905,34.115
35.913,34.112
35.916,34.113
35.916,34.121
35.913,34.134
35.906,34.155
35.896,34.184
35.883,34.222
35.87,34.27
35.855,34.328
35.839,34.397
35.823,34.475
35.806,34.56
35.789,34.649
35.774,34.741
35.76,34.833
35.751,34.923
35.745,35.01
35.744,35.093
35.746,35.172
35.751,35.247
35.758,35.319
35.767,35.387
35.777,35.452
35.785,35.513
35.792,35.571
35.797,35.625
35.797,35.674
35.793,35.716
35.786,35.752
35.776,35.781
35.764,35.806
35.751,35.827
35.738,35.844
35.724,35.859
35.709,35.872
35.693,35.883
35.677,35.894
35.661,35.905
35.645,35.915
35.63,35.926
35.616,35.935
35.604,35.943
35.594,35.949
35.587,35.955
35.583,35.961
35.582,35.967
35.584,35.973
35.587,35.98
35.592,35.986
35.597,35.993
35.601,35.999
35.605,36.004
35.607,36.008
35.608,36.01
35.607,36.011
35.605,36.012
35.602,36.013
35.597,36.015
35.59,36.017
35.581,36.02
35.57,36.021
35.559,36.02
35.547,36.016
35.535,36.011
35.523,36.006
35.511,36
35.5,35.994
35.49,35.988
35.48,35.979
35.47,35.968
35.461,35.953
35.451,35.936
35.441,35.917
35.432,35.899
35.424,35.881
35.417,35.865
35.411,35.85
35.405,35.837
35.4,35.825
35.396,35.813
35.393,35.801
35.39,35.788
35.386,35.776
35.382,35.764
35.377,35.754
35.369,35.745
35.359,35.738
35.346,35.732
35.33,35.729
35.312,35.728
35.292,35.728
35.27,35.729
35.248,35.731
35.227,35.735
35.206,35.74
35.188,35.745
35.172,35.751
35.158,35.758
35.146,35.764
35.135,35.771
35.125,35.777
35.115,35.782
35.106,35.784
35.095,35.784
35.085,35.782
35.073,35.778
35.061,35.771
35.046,35.762
35.032,35.749
35.016,35.733
35.002,35.713
34.987,35.691
34.973,35.667
34.961,35.642
34.951,35.619
34.943,35.597
34.938,35.576
34.936,35.557
34.937,35.54
34.94,35.524
34.944,35.51
34.949,35.496
34.955,35.483
34.958,35.474
34.959,35.474
34.956,35.482
34.95,35.498
34.941,35.518
34.927,35.539
34.909,35.556
34.888,35.569
34.865,35.573
34.841,35.57
34.816,35.558
34.789,35.539
34.759,35.514
34.728,35.483
34.697,35.446
34.668,35.403
34.644,35.357
34.625,35.307
34.612,35.257
34.606,35.209
34.606,35.163
34.61,35.122
34.618,35.086
34.628,35.055
34.638,35.03
34.649,35.01
34.658,34.993
34.666,34.979
34.67,34.968
34.672,34.958
34.671,34.95
34.671,34.944
34.671,34.941
34.672,34.939
34.674,34.938
34.678,34.938
34.682,34.937
34.687,34.936
34.691,34.936
34.694,34.936
34.696,34.937
34.697,34.937
34.696,34.936
34.692,34.932
34.686,34.927
34.677,34.92
34.665,34.913
34.65,34.906
34.632,34.899
34.611,34.892
34.587,34.883
34.561,34.872
34.533,34.858
34.505,34.841
34.478,34.822
34.452,34.803
34.429,34.783
34.409,34.763
34.393,34.744
34.381,34.727
34.374,34.711
34.372,34.698
34.376,34.687
34.385,34.678
34.398,34.672
34.415,34.668
34.432,34.665
34.449,34.664
34.466,34.663
34.482,34.662
34.499,34.662
34.516,34.662
34.537,34.662
34.562,34.661
34.592,34.661
34.629,34.659
34.673,34.655
34.724,34.648
34.782,34.639
34.846,34.625
34.913,34.609
34.983,34.592
35.052,34.574
35.121,34.558
35.188,34.543
35.251,34.531
35.312,34.521
35.369,34.514
35.423,34.508
35.473,34.503
35.519,34.499
35.562,34.495
35.603,34.492
35.641,34.489
35.678,34.485
35.713,34.481
35.746,34.477
35.778,34.473
35.808,34.468
35.836,34.463
35.861,34.457
35.885,34.449
35.906,34.439
35.924,34.428
35.939,34.416
35.949,34.405
35.956,34.393
35.959,34.383
35.958,34.372
35.955,34.361
35.948,34.35
35.938,34.338
35.926,34.326
35.912,34.316
35.893,34.306
35.871,34.299
35.845,34.293
35.817,34.289
35.789,34.287
35.763,34.285
35.738,34.284
35.717,34.283
35.701,34.281
35.688,34.28
35.681,34.28
35.678,34.283
35.679,34.29
35.683,34.302
35.69,34.322
35.699,34.348
35.71,34.381
35.72,34.422
35.73,34.472
35.737,34.532
35.742,34.601
35.745,34.68
35.744,34.766
35.74,34.859
35.732,34.959
35.72,35.063
35.705,35.17
35.687,35.279
35.668,35.388
35.648,35.494
35.629,35.596
35.612,35.691
35.596,35.777
35.583,35.855
35.572,35.923
35.563,35.982
35.556,36.031
35.551,36.071
35.548,36.104
35.545,36.131
35.542,36.152
35.538,36.169
35.533,36.183
35.527,36.192
35.52,36.199
35.511,36.204
35.501,36.206
35.491,36.208
35.48,36.209
35.47,36.21
35.46,36.211
35.452,36.213
35.445,36.216
35.439,36.221
35.435,36.228
35.433,36.238
35.434,36.249
35.435,36.259
35.435,36.27
35.434,36.279
35.432,36.287
35.427,36.294
35.419,36.3
35.408,36.306
35.394,36.311
35.376,36.316
35.357,36.321
35.335,36.326
35.312,36.331
35.288,36.336
35.263,36.342
35.239,36.347
35.215,36.351
35.192,36.355
35.172,36.357
35.155,36.358
35.142,36.358
35.133,36.354
35.127,36.348
35.122,36.34
35.119,36.33
35.116,36.319
35.113,36.308
35.11,36.297
35.106,36.286
35.099,36.276
35.091,36.265
35.08,36.254
35.068,36.244
35.054,36.235
35.04,36.23
35.026,36.228
35.014,36.228
35.003,36.229
34.994,36.232
34.986,36.235
34.98,36.238
34.974,36.24
34.967,36.243
34.959,36.244
34.95,36.245
34.939,36.245
34.926,36.245
34.912,36.245
34.897,36.241
34.882,36.228
34.865,36.207
34.848,36.178
34.831,36.144
34.816,36.106
34.805,36.067
34.797,36.032
34.793,36
34.793,35.974
34.797,35.954
34.803,35.94
34.811,35.931
34.821,35.926
34.83,35.924
34.84,35.924
34.848,35.923
34.855,35.922
34.86,35.919
34.864,35.915
34.865,35.908
34.865,35.9
34.861,35.889
34.855,35.876
34.846,35.862
34.833,35.847
34.816,35.831
34.797,35.814
34.775,35.797
34.752,35.778
34.729,35.759
34.708,35.739
34.686,35.718
34.666,35.696
34.647,35.674
34.631,35.652
34.617,35.632
34.606,35.613
34.599,35.596
34.595,35.582
34.595,35.571
34.599,35.56
34.607,35.55
34.618,35.538
34.632,35.525
34.647,35.511
34.662,35.498
34.677,35.486
34.688,35.475
34.697,35.467
34.7,35.459
34.698,35.451
34.691,35.443
34.677,35.433
34.658,35.424
34.635,35.414
34.609,35.406
34.582,35.398
34.554,35.391
34.529,35.384
34.506,35.376
34.487,35.366
34.473,35.355
34.463,35.343
34.458,35.331
34.456,35.319
34.458,35.309
34.462,35.299
34.468,35.287
34.474,35.274
34.48,35.259
34.484,35.241
34.488,35.224
34.491,35.206
34.494,35.189
34.497,35.174
34.501,35.161
34.508,35.15
34.518,35.14
34.533,35.13
34.556,35.12
34.588,35.108
34.631,35.096
34.686,35.083
34.751,35.07
34.828,35.057
34.914,35.045
35.007,35.032
35.106,35.019
35.206,35.005
35.306,34.99
35.403,34.975
35.492,34.958
35.573,34.941
35.644,34.924
35.705,34.906
35.755,34.889
35.797,34.871
35.829,34.854
35.853,34.836
35.87,34.818
35.879,34.801
35.882,34.784
35.881,34.769
35.876,34.757
35.87,34.746
35.862,34.737
35.854,34.731
35.847,34.726
35.841,34.724
35.835,34.723
35.83,34.722
35.826,34.722
35.823,34.72
35.82,34.717
35.817,34.712
35.813,34.705
35.808,34.697
35.802,34.689
35.795,34.68
35.788,34.672
35.78,34.663
35.774,34.654
35.768,34.644
35.763,34.635
35.759,34.626
35.756,34.616
35.754,34.605
35.753,34.593
35.754,34.58
35.756,34.567
35.759,34.553
35.764,34.54
35.771,34.527
35.778,34.513
35.786,34.5
35.793,34.486
35.8,34.472
35.807,34.459
35.813,34.446
35.817,34.435
35.819,34.427
35.817,34.422
35.812,34.419
35.802,34.419
35.788,34.421
35.771,34.424
35.752,34.428
35.729,34.43
35.704,34.431
35.678,34.43
35.652,34.428
35.627,34.427
35.603,34.43
35.582,34.438
35.563,34.452
35.547,34.475
35.534,34.506
35.524,34.548
35.516,34.602
35.511,34.667
35.507,34.744
35.503,34.832
35.5,34.928
35.496,35.03
35.491,35.137
35.486,35.247
35.481,35.359
35.478,35.472
35.476,35.583
35.476,35.691
35.478,35.795
35.48,35.891
35.482,35.98
35.484,36.059
35.486,36.13
35.487,36.192
35.485,36.246
35.481,36.293
35.473,36.334
35.463,36.371
35.45,36.404
35.433,36.433
35.414,36.459
35.392,36.483
35.369,36.505
35.346,36.525
35.322,36.544
35.3,36.563
35.278,36.582
35.258,36.601
35.239,36.619
35.221,36.636
35.203,36.653
35.186,36.67
35.17,36.687
35.155,36.705
35.143,36.722
35.135,36.74
35.129,36.756
35.128,36.772
35.13,36.786
35.134,36.798
35.142,36.809
35.153,36.818
35.167,36.824
35.182,36.828
35.199,36.83
35.216,36.829
35.233,36.827
35.248,36.823
35.258,36.817
35.262,36.81
35.26,36.801
35.252,36.791
35.238,36.78
35.219,36.767
35.196,36.753
35.171,36.736
35.144,36.718
35.116,36.698
35.087,36.677
35.06,36.655
35.036,36.632
35.014,36.61
34.997,36.589
34.984,36.57
34.977,36.56
34.974,36.563
34.976,36.579
34.981,36.607
34.99,36.642
35.002,36.682
35.014,36.722
35.027,36.758
35.039,36.789
35.05,36.811
35.057,36.823
35.061,36.824
35.062,36.816
35.06,36.799
35.056,36.775
35.051,36.744
35.044,36.709
35.036,36.671
35.028,36.63
35.02,36.589
35.012,36.547
35.003,36.508
34.995,36.471
34.988,36.438
34.981,36.408
34.975,36.382
34.969,36.36
34.963,36.34
34.958,36.324
34.953,36.31
34.947,36.298
34.941,36.287
34.934,36.278
34.925,36.269
34.915,36.26
34.904,36.249
34.893,36.236
34.884,36.221
34.882,36.204
34.889,36.187
34.903,36.169
34.922,36.151
34.942,36.134
34.961,36.117
34.976,36.1
34.985,36.082
34.986,36.064
34.981,36.045
34.967,36.027
34.947,36.008
34.921,35.989
34.891,35.97
34.858,35.948
34.823,35.926
34.787,35.902
34.751,35.879
34.717,35.855
34.683,35.832
34.652,35.809
34.623,35.787
34.598,35.764
34.575,35.74
34.555,35.714
34.536,35.687
34.519,35.66
34.503,35.633
34.489,35.607
34.476,35.583
34.466,35.562
34.459,35.542
34.457,35.525
34.461,35.509
34.472,35.495
34.49,35.482
34.518,35.471
34.556,35.461
34.603,35.452
34.66,35.443
34.726,35.435
34.8,35.427
34.88,35.418
34.964,35.407
35.053,35.395
35.144,35.383
35.235,35.369
35.324,35.355
35.411,35.34
35.493,35.324
35.567,35.307
35.632,35.289
35.686,35.269
35.73,35.249
35.765,35.229
35.792,35.208
35.814,35.188
35.831,35.168
35.845,35.148
35.858,35.13
35.869,35.113
35.879,35.099
35.889,35.087
35.899,35.076
35.908,35.067
35.917,35.059
35.926,35.051
35.935,35.045
35.944,35.039
35.953,35.033
35.962,35.027
35.973,35.021
35.985,35.014
35.998,35.004
36.012,34.993
36.027,34.979
36.041,34.963
36.055,34.943
36.068,34.919
36.081,34.892
36.092,34.864
36.103,34.835
36.114,34.807
36.123,34.781
36.131,34.759
36.136,34.74
36.14,34.726
36.142,34.715
36.142,34.708
36.14,34.702
36.137,34.696
36.13,34.691
36.122,34.685
36.111,34.679
36.098,34.672
36.082,34.666
36.064,34.661
36.043,34.658
36.019,34.655
35.994,34.653
35.967,34.651
35.941,34.646
35.915,34.64
35.893,34.631
35.874,34.619
35.858,34.604
35.847,34.585
35.84,34.564
35.837,34.541
35.838,34.517
35.841,34.494
35.845,34.473
35.848,34.454
35.852,34.438
35.853,34.426
35.852,34.417
35.85,34.411
35.846,34.407
35.84,34.404
35.833,34.403
35.826,34.403
35.818,34.404
35.81,34.407
35.8,34.413
35.79,34.422
35.779,34.437
35.768,34.456
35.757,34.479
35.747,34.506
35.738,34.537
35.729,34.574
35.719,34.62
35.71,34.676
35.699,34.744
35.688,34.822
35.677,34.911
35.664,35.009
35.65,35.113
35.634,35.223
35.618,35.339
35.599,35.458
35.58,35.581
35.56,35.705
35.54,35.827
35.519,35.946
35.497,36.06
35.474,36.166
35.449,36.266
35.422,36.358
35.395,36.442
35.368,36.519
35.341,36.59
35.316,36.656
35.292,36.717
35.272,36.773
35.255,36.823
35.242,36.868
35.232,36.906
35.225,36.939
35.22,36.967
35.216,36.99
35.213,37.01
35.211,37.025
35.21,37.038
35.209,37.048
35.208,37.056
35.207,37.064
35.206,37.07
35.203,37.073
35.198,37.075
35.192,37.074
35.185,37.071
35.178,37.069
35.17,37.067
35.162,37.066
35.152,37.066
35.142,37.066
35.133,37.065
35.123,37.065
35.114,37.065
35.106,37.065
35.1,37.065
35.094,37.066
35.089,37.068
35.084,37.071
35.077,37.074
35.07,37.076
35.06,37.077
35.049,37.076
35.035,37.07
35.019,37.06
35.001,37.044
34.983,37.026
34.965,37.006
34.949,36.988
34.935,36.971
34.923,36.956
34.915,36.943
34.909,36.931
34.905,36.919
34.903,36.908
34.903,36.897
34.904,36.887
34.907,36.878
34.91,36.87
34.913,36.863
34.917,36.857
34.92,36.852
34.922,36.847
34.923,36.842
34.922,36.838
34.919,36.836
34.914,36.835
34.905,36.837
34.894,36.84
34.879,36.843
34.862,36.844
34.843,36.843
34.822,36.837
34.802,36.828
34.781,36.816
34.761,36.801
34.744,36.784
34.727,36.765
34.712,36.745
34.697,36.724
34.683,36.704
34.668,36.684
34.654,36.664
34.639,36.645
34.626,36.625
34.614,36.604
34.603,36.581
34.594,36.555
34.588,36.528
34.583,36.499
34.579,36.469
34.578,36.436
34.579,36.404
34.582,36.372
34.586,36.341
34.593,36.31
34.6,36.28
34.608,36.251
34.616,36.221
34.624,36.192
34.631,36.162
34.638,36.131
34.645,36.1
34.65,36.069
34.655,36.038
34.659,36.007
34.662,35.977
34.665,35.949
34.669,35.923
34.675,35.901
34.685,35.882
34.698,35.866
34.716,35.851
34.739,35.837
34.767,35.822
34.801,35.808
34.843,35.792
34.893,35.777
34.951,35.762
35.017,35.749
35.091,35.735
35.172,35.722
35.257,35.707
35.347,35.691
35.439,35.673
35.531,35.655
35.621,35.636
35.707,35.617
35.789,35.598
35.864,35.579
35.931,35.561
35.989,35.543
36.037,35.525
36.074,35.507
36.099,35.491
36.113,35.477
36.116,35.465
36.11,35.455
36.097,35.447
36.078,35.44
36.055,35.432
36.03,35.423
36.005,35.411
35.981,35.397
35.958,35.38
35.936,35.363
35.916,35.344
35.897,35.325
35.88,35.306
35.864,35.287
35.851,35.268
35.84,35.25
35.831,35.231
35.826,35.211
35.824,35.19
35.826,35.167
35.832,35.143
35.84,35.118
35.852,35.094
35.866,35.071
35.882,35.049
35.897,35.03
35.911,35.013
35.924,34.997
35.933,34.984
35.939,34.971
35.941,34.958
35.939,34.944
35.934,34.926
35.926,34.902
35.916,34.871
35.906,34.836
35.897,34.798
35.889,34.761
35.882,34.727
35.876,34.697
35.873,34.674
35.87,34.656
35.869,34.644
35.869,34.637
35.87,34.635
35.871,34.636
35.871,34.638
35.868,34.64
35.863,34.641
35.855,34.642
35.844,34.643
35.831,34.642
35.815,34.64
35.796,34.637
35.776,34.63
35.755,34.619
35.733,34.604
35.711,34.587
35.689,34.568
35.668,34.547
35.648,34.525
35.63,34.502
35.614,34.479
35.601,34.455
35.591,34.432
35.584,34.409
35.581,34.387
35.579,34.367
35.58,34.348
35.583,34.33
35.588,34.315
35.594,34.301
35.601,34.29
35.608,34.283
35.615,34.28
35.621,34.284
35.624,34.295
35.623,34.314
35.619,34.343
35.611,34.382
35.598,34.433
35.58,34.494
35.557,34.567
35.529,34.651
35.497,34.745
35.461,34.849
35.423,34.962
35.385,35.084
35.349,35.214
35.316,35.349
35.287,35.488
35.264,35.628
35.247,35.766
35.237,35.901
35.232,36.033
35.233,36.16
35.238,36.282
35.245,36.397
35.253,36.505
35.262,36.604
35.271,36.693
35.279,36.773
35.286,36.844
35.292,36.907
35.295,36.961
35.296,37.008
35.294,37.048
35.289,37.083
35.281,37.113
35.269,37.14
35.252,37.164
35.233,37.186
35.211,37.205
35.186,37.224
35.159,37.241
35.13,37.256
35.1,37.27
35.069,37.283
35.039,37.294
35.009,37.305
34.982,37.315
34.957,37.325
34.934,37.334
34.915,37.343
34.898,37.35
34.884,37.355
34.872,37.358
34.863,37.36
34.857,37.361
34.853,37.361
34.85,37.361
34.848,37.361
34.845,37.361
34.843,37.361
34.839,37.36
34.836,37.357
34.831,37.351
34.827,37.341
34.823,37.328
34.818,37.311
34.814,37.293
34.811,37.274
34.809,37.255
34.808,37.235
34.81,37.214
34.813,37.191
34.817,37.167
34.822,37.143
34.828,37.119
34.834,37.098
34.84,37.079
34.845,37.064
34.849,37.051
34.851,37.038
34.852,37.027
34.85,37.016
34.847,37.007
34.842,37
34.835,36.995
34.826,36.993
34.816,36.993
34.805,36.997
34.795,37.004
34.784,37.013
34.773,37.023
34.763,37.032
34.753,37.04
34.744,37.045
34.737,37.047
34.732,37.044
34.729,37.036
34.727,37.023
34.726,37.005
34.728,36.983
34.73,36.958
34.733,36.93
34.736,36.899
34.739,36.867
34.742,36.833
34.745,36.797
34.747,36.761
34.748,36.724
34.75,36.687
34.75,36.65
34.751,36.614
34.751,36.576
34.751,36.539
34.75,36.503
34.747,36.469
34.744,36.436
34.741,36.406
34.742,36.379
34.748,36.355
34.76,36.334
34.78,36.314
34.81,36.296
34.85,36.278
34.899,36.261
34.958,36.244
35.026,36.226
35.1,36.207
35.181,36.187
35.264,36.166
35.349,36.144
35.433,36.121
35.514,36.095
35.588,36.067
35.655,36.036
35.711,36.003
35.758,35.969
35.794,35.934
35.82,35.899
35.837,35.865
35.846,35.83
35.849,35.796
35.848,35.76
35.843,35.725
35.837,35.69
35.829,35.657
35.82,35.628
35.811,35.601
35.802,35.578
35.794,35.558
35.787,35.538
35.781,35.519
35.775,35.501
35.77,35.482
35.765,35.465
35.76,35.449
35.755,35.434
35.752,35.419
35.75,35.404
35.75,35.387
35.754,35.367
35.761,35.344
35.77,35.32
35.782,35.295
35.795,35.27
35.81,35.245
35.825,35.22
35.842,35.195
35.859,35.168
35.877,35.141
35.896,35.112
35.914,35.083
35.931,35.054
35.947,35.027
35.96,35.002
35.97,34.98
35.977,34.961
35.979,34.942
35.977,34.925
35.971,34.908
35.96,34.89
35.945,34.872
35.926,34.854
35.903,34.835
35.877,34.816
35.848,34.797
35.817,34.779
35.784,34.763
35.75,34.748
35.715,34.735
35.681,34.722
35.649,34.71
35.62,34.692
35.596,34.666
35.576,34.631
35.562,34.588
35.554,34.54
35.551,34.49
35.555,34.441
35.563,34.396
35.574,34.358
35.588,34.329
35.605,34.31
35.622,34.301
35.64,34.301
35.658,34.31
35.677,34.325
35.695,34.344
35.712,34.365
35.729,34.387
35.746,34.409
35.762,34.429
35.777,34.446
35.791,34.458
35.803,34.465
35.81,34.465
35.813,34.459
35.812,34.446
35.806,34.428
35.796,34.407
35.785,34.382
35.773,34.355
35.759,34.326
35.745,34.296
35.73,34.266
35.714,34.238
35.697,34.214
35.677,34.193
35.656,34.176
35.631,34.165
35.603,34.159
35.572,34.16
35.538,34.169
35.501,34.188
35.462,34.218
35.422,34.259
35.381,34.312
35.34,34.376
35.301,34.452
35.264,34.537
35.229,34.633
35.199,34.739
35.174,34.853
35.153,34.974
35.138,35.102
35.128,35.235
35.123,35.372
35.122,35.513
35.125,35.656
35.129,35.8
35.133,35.942
35.138,36.081
35.141,36.215
35.144,36.342
35.146,36.459
35.148,36.568
35.148,36.666
35.147,36.756
35.145,36.836
35.142,36.909
35.138,36.974
35.133,37.032
35.126,37.083
35.117,37.127
35.107,37.165
35.095,37.196
35.081,37.221
35.066,37.242
35.049,37.259
35.033,37.275
35.018,37.289
35.005,37.302
34.993,37.313
34.983,37.322
34.976,37.33
34.971,37.337
34.969,37.343
34.97,37.349
34.972,37.355
34.976,37.361
34.981,37.369
34.985,37.377
34.988,37.385
34.989,37.393
34.987,37.4
34.983,37.407
34.977,37.413
34.966,37.418
34.952,37.422
34.934,37.426
34.913,37.429
34.89,37.432
34.865,37.432
34.84,37.431
34.817,37.428
34.796,37.421
34.777,37.412
34.761,37.4
34.749,37.384
34.74,37.365
34.734,37.342
34.73,37.317
34.727,37.289
34.725,37.26
34.724,37.229
34.722,37.198
34.721,37.167
34.718,37.136
34.715,37.108
34.71,37.082
34.704,37.06
34.696,37.04
34.686,37.023
34.674,37.009
34.658,36.997
34.64,36.986
34.617,36.976
34.592,36.967
34.565,36.958
34.536,36.949
34.508,36.94
34.482,36.93
34.458,36.92
34.437,36.908
34.418,36.895
34.401,36.879
34.387,36.86
34.376,36.84
34.369,36.817
34.364,36.794
34.363,36.77
34.366,36.746
34.375,36.723
34.389,36.7
34.411,36.679
34.441,36.659
34.478,36.64
34.524,36.622
34.577,36.604
34.638,36.586
34.706,36.567
34.781,36.547
34.862,36.525
34.949,36.502
35.039,36.476
35.132,36.448
35.226,36.419
35.32,36.389
35.412,36.358
35.5,36.327
35.584,36.295
35.662,36.262
35.733,36.226
35.795,36.188
35.849,36.148
35.894,36.106
35.929,36.062
35.955,36.018
35.972,35.975
35.982,35.934
35.985,35.894
35.982,35.855
35.974,35.818
35.962,35.783
35.946,35.751
35.927,35.72
35.905,35.691
35.881,35.663
35.856,35.636
35.831,35.609
35.805,35.582
35.781,35.557
35.757,35.534
35.735,35.513
35.716,35.493
35.7,35.474
35.688,35.455
35.68,35.435
35.676,35.412
35.674,35.387
35.675,35.362
35.678,35.335
35.682,35.309
35.688,35.283
35.696,35.26
35.705,35.239
35.713,35.219
35.721,35.2
35.726,35.182
35.729,35.164
35.729,35.147
35.726,35.13
35.719,35.113
35.709,35.096
35.697,35.08
35.682,35.063
35.667,35.046
35.65,35.029
35.634,35.012
35.618,34.996
35.602,34.981
35.586,34.968
35.572,34.955
35.558,34.942
35.545,34.928
35.533,34.912
35.522,34.894
35.512,34.875
35.502,34.857
35.495,34.839
35.489,34.821
35.487,34.804
35.487,34.786
35.489,34.767
35.494,34.747
35.499,34.726
35.503,34.704
35.506,34.683
35.506,34.664
35.504,34.646
35.498,34.628
35.488,34.612
35.475,34.597
35.46,34.582
35.442,34.568
35.422,34.554
35.4,34.54
35.378,34.527
35.355,34.515
35.333,34.504
35.312,34.492
35.293,34.48
35.278,34.465
35.266,34.449
35.258,34.428
35.253,34.402
35.251,34.371
35.25,34.336
35.249,34.299
35.249,34.262
35.247,34.225
35.244,34.19
35.24,34.159
35.233,34.131
35.225,34.107
35.215,34.088
35.204,34.074
35.191,34.065
35.178,34.059
35.163,34.055
35.148,34.053
35.131,34.05
35.114,34.047
35.097,34.041
35.079,34.034
35.061,34.023
35.044,34.009
35.027,33.992
35.011,33.974
34.995,33.954
34.981,33.935
34.967,33.919
34.956,33.906
34.946,33.899
34.939,33.899
34.933,33.909
34.93,33.929
34.928,33.961
34.928,34.007
34.93,34.066
34.933,34.14
34.935,34.229
34.937,34.331
34.936,34.448
34.934,34.579
34.93,34.721
34.924,34.872
34.917,35.029
34.909,35.189
34.899,35.35
34.888,35.51
34.877,35.665
34.865,35.817
34.853,35.964
34.842,36.105
34.831,36.239
34.822,36.365
34.814,36.482
34.806,36.59
34.798,36.689
34.791,36.779
34.784,36.86
34.778,36.932
34.772,36.994
34.767,37.048
34.763,37.094
34.759,37.132
34.754,37.163
34.749,37.189
34.745,37.209
34.741,37.225
34.737,37.24
34.733,37.253
34.729,37.268
34.725,37.284
34.72,37.301
34.715,37.318
34.709,37.335
34.703,37.352
34.694,37.367
34.684,37.381
34.671,37.393
34.654,37.403
34.635,37.413
34.613,37.424
34.588,37.435
34.562,37.446
34.535,37.455
34.508,37.462
34.481,37.466
34.457,37.465
34.436,37.461
34.418,37.454
34.404,37.445
34.395,37.434
34.39,37.42
34.391,37.405
34.398,37.386
34.409,37.365
34.423,37.343
34.437,37.318
34.452,37.293
34.466,37.265
34.479,37.237
34.489,37.207
34.495,37.177
34.499,37.147
34.499,37.117
34.496,37.087
34.49,37.059
34.485,37.032
34.482,37.008
34.481,36.987
34.486,36.968
34.498,36.953
34.517,36.941
34.544,36.932
34.581,36.924
34.628,36.918
34.683,36.914
34.747,36.909
34.818,36.905
34.895,36.9
34.976,36.894
35.059,36.886
35.143,36.876
35.226,36.863
35.307,36.85
35.386,36.834
35.459,36.818
35.525,36.8
35.585,36.781
35.636,36.759
35.677,36.735
35.711,36.708
35.736,36.679
35.754,36.646
35.765,36.611
35.77,36.574
35.77,36.536
35.765,36.498
35.756,36.462
35.746,36.428
35.734,36.397
35.722,36.368
35.711,36.341
35.701,36.315
35.692,36.289
35.686,36.261
35.68,36.23
35.673,36.195
35.665,36.159
35.656,36.121
35.647,36.083
35.638,36.046
35.628,36.009
35.619,35.974
35.61,35.938
35.601,35.903
35.595,35.866
35.59,35.828
35.588,35.79
35.587,35.753
35.589,35.718
35.592,35.684
35.596,35.652
35.6,35.623
35.605,35.597
35.61,35.573
35.614,35.551
35.616,35.532
35.615,35.515
35.611,35.501
35.604,35.488
35.596,35.476
35.586,35.462
35.575,35.445
35.563,35.426
35.55,35.404
35.536,35.381
35.523,35.355
35.509,35.328
35.495,35.3
35.481,35.271
35.466,35.242
35.449,35.212
35.431,35.182
35.41,35.151
35.388,35.12
35.364,35.09
35.34,35.061
35.315,35.032
35.292,35.005
35.27,34.98
35.251,34.956
35.235,34.935
35.225,34.916
35.22,34.899
35.221,34.884
35.228,34.87
35.239,34.856
35.254,34.842
35.271,34.826
35.29,34.809
35.309,34.791
35.329,34.773
35.348,34.755
35.365,34.738
35.38,34.723
35.393,34.707
35.402,34.691
35.408,34.674
35.409,34.655
35.408,34.634
35.402,34.612
35.394,34.589
35.383,34.565
35.368,34.542
35.35,34.519
35.329,34.496
35.305,34.475
35.278,34.456
35.249,34.438
35.218,34.423
35.186,34.41
35.155,34.398
35.125,34.385
35.097,34.372
35.07,34.357
35.047,34.341
35.026,34.326
35.009,34.311
34.996,34.297
34.986,34.282
34.98,34.268
34.976,34.251
34.975,34.234
34.976,34.215
34.979,34.195
34.983,34.175
34.987,34.153
34.991,34.132
34.994,34.11
34.996,34.087
34.996,34.065
34.995,34.044
34.993,34.023
34.992,34.003
34.99,33.983
34.988,33.963
34.987,33.943
34.986,33.923
34.985,33.904
34.983,33.887
34.978,33.871
34.97,33.858
34.96,33.848
34.946,33.839
34.929,33.831
34.91,33.826
34.888,33.821
34.864,33.819
34.839,33.819
34.813,33.822
34.787,33.829
34.762,33.841
34.737,33.86
34.714,33.888
34.695,33.927
34.679,33.978
34.667,34.042
34.659,34.118
34.654,34.206
34.651,34.305
34.65,34.416
34.651,34.538
34.652,34.67
34.654,34.809
34.656,34.956
34.657,35.107
34.658,35.262
34.658,35.418
34.658,35.573
34.659,35.726
34.659,35.874
34.66,36.014
34.662,36.147
34.663,36.269
34.663,36.381
34.662,36.482
34.66,36.574
34.658,36.656
34.654,36.731
34.648,36.799
34.641,36.861
34.631,36.917
34.619,36.967
34.605,37.012
34.59,37.051
34.574,37.084
34.558,37.112
34.543,37.134
34.529,37.152
34.517,37.168
34.507,37.182
34.5,37.195
34.497,37.206
34.496,37.216
34.497,37.225
34.5,37.234
34.503,37.24
34.506,37.246
34.51,37.249
34.513,37.249
34.515,37.246
34.516,37.24
34.516,37.231
34.516,37.221
34.516,37.211
34.515,37.201
34.514,37.192
34.515,37.184
34.52,37.177
34.529,37.171
34.546,37.165
34.57,37.158
34.603,37.15
34.646,37.14
34.697,37.128
34.758,37.114
34.826,37.096
34.901,37.074
34.983,37.05
35.068,37.023
35.154,36.993
35.24,36.963
35.325,36.933
35.406,36.904
35.483,36.877
35.554,36.851
35.619,36.827
35.676,36.803
35.725,36.779
35.766,36.757
35.797,36.735
35.821,36.715
35.837,36.696
35.846,36.679
35.851,36.663
35.852,36.648
35.853,36.634
35.852,36.621
35.849,36.607
35.845,36.593
35.841,36.579
35.836,36.564
35.83,36.549
35.825,36.533
35.82,36.515
35.816,36.496
35.811,36.474
35.807,36.45
35.801,36.423
35.794,36.396
35.785,36.367
35.773,36.339
35.761,36.312
35.748,36.286
35.735,36.26
35.724,36.233
35.714,36.206
35.706,36.178
35.701,36.149
35.699,36.119
35.699,36.087
35.701,36.054
35.705,36.021
35.708,35.989
35.712,35.958
35.716,35.925
35.718,35.888
35.721,35.844
35.722,35.795
35.723,35.741
35.722,35.685
35.72,35.628
35.717,35.574
35.714,35.524
35.709,35.48
35.704,35.442
35.698,35.411
35.692,35.386
35.686,35.368
35.678,35.356
35.67,35.348
35.659,35.344
35.647,35.34
35.633,35.337
35.617,35.332
35.6,35.324
35.58,35.314
35.56,35.3
35.54,35.284
35.52,35.265
35.501,35.245
35.484,35.222
35.47,35.197
35.457,35.172
35.445,35.146
35.436,35.119
35.428,35.092
35.421,35.063
35.415,35.035
35.411,35.007
35.407,34.98
35.403,34.955
35.401,34.931
35.4,34.908
35.399,34.887
35.4,34.866
35.402,34.844
35.405,34.821
35.407,34.798
35.41,34.774
35.412,34.751
35.413,34.729
35.413,34.708
35.411,34.688
35.407,34.668
35.4,34.649
35.391,34.631
35.379,34.613
35.364,34.595
35.347,34.575
35.328,34.555
35.309,34.532
35.29,34.507
35.271,34.481
35.253,34.454
35.236,34.427
35.22,34.401
35.205,34.377
35.192,34.355
35.181,34.333
35.171,34.313
35.161,34.294
35.152,34.276
35.144,34.259
35.135,34.243
35.126,34.228
35.116,34.215
35.107,34.203
35.098,34.192
35.094,34.181
35.093,34.171
35.095,34.161
35.1,34.149
35.106,34.135
35.112,34.119
35.118,34.1
35.121,34.079
35.122,34.057
35.119,34.034
35.112,34.011
35.1,33.988
35.085,33.964
35.066,33.941
35.045,33.918
35.024,33.894
35.002,33.871
34.981,33.847
34.962,33.822
34.946,33.796
34.934,33.77
34.926,33.745
34.92,33.723
34.917,33.702
34.916,33.684
34.916,33.667
34.916,33.651
34.915,33.636
34.912,33.619
34.907,33.601
34.9,33.582
34.89,33.563
34.877,33.545
34.862,33.528
34.847,33.512
34.831,33.497
34.817,33.482
34.804,33.469
34.793,33.458
34.785,33.451
34.778,33.449
34.775,33.454
34.773,33.468
34.771,33.491
34.771,33.526
34.77,33.573
34.77,33.634
34.77,33.711
34.77,33.803
34.771,33.911
34.773,34.031
34.775,34.163
34.778,34.303
34.78,34.449
34.781,34.599
34.782,34.751
34.781,34.904
34.779,35.057
34.775,35.209
34.77,35.357
34.762,35.501
34.751,35.637
34.737,35.765
34.719,35.884
34.699,35.992
34.677,36.09
34.653,36.179
34.629,36.259
34.606,36.331
34.584,36.396
34.563,36.451
34.546,36.499
34.531,36.54
34.519,36.574
34.51,36.604
34.502,36.63
34.496,36.653
34.49,36.672
34.485,36.688
34.48,36.699
34.475,36.706
34.47,36.712
34.468,36.715
34.468,36.717
34.473,36.718
34.484,36.718
34.503,36.719
34.53,36.72
34.567,36.724
34.615,36.729
34.674,36.736
34.744,36.742
34.823,36.748
34.91,36.753
35.003,36.757
35.099,36.76
35.196,36.762
35.293,36.764
35.387,36.766
35.476,36.766
35.561,36.766
35.639,36.765
35.709,36.763
35.773,36.76
35.828,36.753
35.876,36.743
35.915,36.728
35.947,36.708
35.971,36.683
35.987,36.654
35.996,36.621
35.998,36.586
35.994,36.549
35.984,36.509
35.969,36.467
35.951,36.425
35.929,36.382
35.907,36.342
35.884,36.303
35.863,36.267
35.844,36.233
35.828,36.202
35.816,36.173
35.807,36.146
35.802,36.121
35.801,36.101
35.804,36.083
35.811,36.069
35.82,36.058
35.831,36.05
35.842,36.043
35.853,36.039
35.864,36.033
35.875,36.027
35.885,36.018
35.894,36.008
35.903,35.997
35.911,35.985
35.917,35.973
35.921,35.96
35.923,35.945
35.923,35.928
35.921,35.909
35.916,35.887
35.908,35.864
35.898,35.84
35.885,35.815
35.871,35.79
35.857,35.762
35.842,35.732
35.83,35.698
35.819,35.663
35.811,35.628
35.806,35.593
35.805,35.561
35.807,35.53
35.81,35.502
35.812,35.476
35.814,35.451
35.814,35.425
35.811,35.399
35.806,35.371
35.798,35.343
35.786,35.314
35.772,35.284
35.756,35.255
35.74,35.227
35.722,35.199
35.705,35.173
35.69,35.147
35.677,35.121
35.668,35.095
35.66,35.069
35.655,35.043
35.652,35.016
35.649,34.989
35.646,34.963
35.642,34.938
35.637,34.915
35.631,34.894
35.624,34.875
35.616,34.86
35.607,34.846
35.598,34.833
35.588,34.821
35.578,34.81
35.568,34.799
35.557,34.79
35.545,34.782
35.532,34.775
35.517,34.768
35.501,34.759
35.483,34.747
35.463,34.73
35.442,34.71
35.42,34.686
35.397,34.66
35.375,34.634
35.354,34.609
35.336,34.587
35.32,34.568
35.306,34.553
35.294,34.544
35.284,34.539
35.275,34.538
35.268,34.542
35.263,34.549
35.26,34.556
35.261,34.564
35.264,34.569
35.269,34.572
35.277,34.573
35.287,34.571
35.299,34.568
35.311,34.562
35.324,34.554
35.336,34.54
35.346,34.522
35.354,34.498
35.357,34.469
35.356,34.436
35.35,34.399
35.337,34.36
35.318,34.321
35.292,34.282
35.261,34.244
35.225,34.207
35.186,34.171
35.146,34.137
35.106,34.103
35.068,34.072
35.032,34.041
35.001,34.011
34.974,33.983
34.953,33.956
34.937,33.932
34.925,33.91
34.919,33.891
34.916,33.873
34.917,33.855
34.92,33.839
34.926,33.822
34.933,33.805
34.94,33.786
34.947,33.766
34.955,33.744
34.961,33.722
34.967,33.699
34.972,33.676
34.976,33.653
34.979,33.631
34.982,33.61
34.984,33.589
34.986,33.568
34.988,33.548
34.988,33.529
34.987,33.512
34.985,33.496
34.98,33.482
34.973,33.469
34.964,33.455
34.952,33.442
34.938,33.428
34.922,33.413
34.904,33.398
34.885,33.383
34.866,33.369
34.845,33.356
34.823,33.345
34.799,33.336
34.775,33.33
34.749,33.329
34.724,33.335
34.699,33.349
34.676,33.373
34.655,33.408
34.635,33.453
34.618,33.508
34.603,33.572
34.592,33.646
34.584,33.729
34.581,33.823
34.581,33.927
34.586,34.04
34.593,34.161
34.603,34.286
34.614,34.414
34.626,34.542
34.638,34.667
34.649,34.79
34.659,34.907
34.665,35.019
34.669,35.125
34.669,35.226
34.666,35.321
34.659,35.41
34.65,35.493
34.64,35.57
34.629,35.64
34.618,35.705
34.607,35.763
34.599,35.814
34.592,35.858
34.587,35.895
34.587,35.924
34.591,35.944
34.601,35.957
34.618,35.964
34.641,35.968
34.672,35.969
34.71,35.969
34.756,35.968
34.807,35.966
34.865,35.964
34.928,35.959
34.996,35.948
35.067,35.93
35.141,35.905
35.217,35.877
35.292,35.849
35.367,35.823
35.44,35.803
35.51,35.793
35.575,35.794
35.636,35.805
35.69,35.827
35.737,35.857
35.777,35.892
35.811,35.931
35.839,35.97
35.862,36.007
35.88,36.041
35.895,36.069
35.906,36.09
35.915,36.103
35.923,36.108
35.93,36.104
35.937,36.092
35.943,36.072
35.949,36.045
35.954,36.011
35.958,35.972
35.961,35.93
35.963,35.886
35.966,35.843
35.968,35.802
35.971,35.765
35.974,35.733
35.977,35.706
35.981,35.685
35.985,35.669
35.99,35.658
35.993,35.65
35.996,35.645
35.997,35.641
35.998,35.637
35.999,35.633
35.999,35.628
36,35.623
36.001,35.616
36.001,35.609
36,35.601
35.999,35.59
35.998,35.577
35.997,35.56
35.995,35.541
35.992,35.518
35.989,35.494
35.983,35.468
35.976,35.442
35.967,35.416
35.956,35.39
35.943,35.367
35.927,35.345
35.909,35.325
35.89,35.307
35.87,35.29
35.85,35.273
35.83,35.255
35.812,35.236
35.794,35.216
35.778,35.194
35.762,35.171
35.747,35.148
35.732,35.123
35.716,35.098
35.698,35.072
35.68,35.045
35.661,35.018
35.641,34.989
35.622,34.96
35.606,34.928
35.592,34.894
35.581,34.858
35.573,34.82
35.568,34.783
35.567,34.747
35.568,34.713
35.572,34.682
35.577,34.651
35.583,34.623
35.589,34.595
35.595,34.569
35.604,34.545
35.619,34.523
35.639,34.504
35.664,34.487
35.691,34.471
35.717,34.454
35.74,34.437
35.757,34.418
35.768,34.398
35.772,34.379
35.767,34.36
35.754,34.341
35.733,34.322
35.704,34.304
35.668,34.284
35.628,34.263
35.584,34.242
35.537,34.221
35.49,34.202
35.443,34.185
35.399,34.17
35.358,34.157
35.322,34.143
35.293,34.13
35.269,34.116
35.253,34.102
35.243,34.088
35.238,34.075
35.236,34.062
35.236,34.05
35.238,34.038
35.24,34.025
35.24,34.011
35.239,33.995
35.236,33.978
35.232,33.961
35.226,33.946
35.217,33.932
35.206,33.918
35.193,33.905
35.178,33.892
35.161,33.879
35.142,33.868
35.123,33.858
35.104,33.851
35.085,33.846
35.067,33.844
35.052,33.843
35.041,33.843
35.033,33.84
35.029,33.834
35.028,33.825
35.03,33.813
35.033,33.799
35.039,33.781
35.045,33.76
35.053,33.736
35.06,33.708
35.068,33.677
35.076,33.645
35.083,33.613
35.089,33.583
35.093,33.557
35.094,33.535
35.092,33.519
35.086,33.507
35.074,33.497
35.059,33.489
35.039,33.483
35.017,33.479
34.993,33.475
34.969,33.473
34.945,33.47
34.921,33.467
34.899,33.462
34.878,33.457
34.859,33.45
34.841,33.443
34.827,33.434
34.814,33.424
34.803,33.413
34.792,33.401
34.782,33.387
34.771,33.373
34.759,33.36
34.748,33.349
34.738,33.34
34.728,33.332
34.719,33.327
34.71,33.322
34.703,33.317
34.698,33.31
34.693,33.302
34.689,33.293
34.686,33.282
34.684,33.27
34.681,33.258
34.678,33.246
34.673,33.236
34.668,33.227
34.662,33.222
34.657,33.22
34.652,33.224
34.647,33.236
34.644,33.258
34.643,33.293
34.643,33.342
34.646,33.405
34.651,33.482
34.656,33.571
34.663,33.671
34.668,33.779
34.673,33.895
34.677,34.017
34.68,34.144
34.681,34.272
34.68,34.401
34.677,34.528
34.672,34.651
34.664,34.77
34.654,34.882
34.643,34.989
34.63,35.088
34.618,35.179
34.607,35.261
34.598,35.334
34.592,35.397
34.591,35.45
34.597,35.494
34.611,35.53
34.633,35.561
34.664,35.587
34.703,35.609
34.749,35.627
34.801,35.643
34.859,35.655
34.923,35.665
34.991,35.672
35.063,35.676
35.138,35.68
35.216,35.682
35.295,35.684
35.374,35.686
35.453,35.687
35.529,35.688
35.602,35.688
35.669,35.689
35.731,35.691
35.785,35.694
35.833,35.698
35.874,35.701
35.908,35.704
35.935,35.706
35.956,35.707
35.973,35.709
35.986,35.712
35.996,35.715
36.006,35.719
36.015,35.723
36.024,35.728
36.034,35.731
36.045,35.732
36.057,35.732
36.07,35.73
36.083,35.726
36.096,35.718
36.108,35.708
36.117,35.694
36.125,35.678
36.13,35.66
36.133,35.64
36.133,35.619
36.13,35.596
36.125,35.573
36.117,35.549
36.11,35.526
36.102,35.503
36.095,35.482
36.087,35.463
36.08,35.445
36.072,35.431
36.064,35.42
36.056,35.412
36.048,35.409
36.041,35.409
36.034,35.411
36.027,35.412
36.022,35.412
36.017,35.41
36.012,35.406
36.007,35.401
36.001,35.394
35.992,35.387
35.98,35.379
35.966,35.369
35.949,35.358
35.928,35.345
35.905,35.33
35.88,35.315
35.854,35.3
35.827,35.285
35.802,35.27
35.779,35.254
35.759,35.238
35.743,35.22
35.729,35.201
35.723,35.181
35.728,35.161
35.745,35.142
35.773,35.123
35.809,35.107
35.849,35.092
35.889,35.079
35.927,35.067
35.958,35.054
35.98,35.042
35.993,35.03
35.995,35.017
35.989,35.003
35.974,34.988
35.954,34.971
35.929,34.951
35.903,34.928
35.875,34.903
35.849,34.876
35.823,34.847
35.799,34.819
35.777,34.79
35.756,34.763
35.737,34.735
35.719,34.709
35.702,34.684
35.686,34.662
35.671,34.643
35.656,34.629
35.641,34.619
35.627,34.613
35.613,34.61
35.599,34.61
35.586,34.61
35.572,34.61
35.558,34.61
35.543,34.609
35.529,34.607
35.515,34.605
35.501,34.601
35.487,34.595
35.472,34.587
35.457,34.576
35.442,34.563
35.429,34.548
35.417,34.531
35.407,34.513
35.398,34.495
35.391,34.479
35.385,34.464
35.379,34.451
35.375,34.439
35.37,34.43
35.366,34.422
35.361,34.417
35.356,34.412
35.349,34.407
35.34,34.4
35.331,34.393
35.321,34.385
35.309,34.376
35.297,34.366
35.284,34.356
35.27,34.345
35.255,34.333
35.239,34.321
35.222,34.307
35.204,34.293
35.184,34.278
35.163,34.264
35.142,34.249
35.121,34.235
35.1,34.223
35.079,34.213
35.061,34.204
35.044,34.196
35.029,34.188
35.017,34.181
35.007,34.172
35,34.162
34.996,34.151
34.994,34.139
34.993,34.127
34.994,34.116
34.995,34.105
34.997,34.094
34.999,34.083
35.001,34.071
35.002,34.058
35.004,34.044
35.005,34.028
35.008,34.011
35.011,33.994
35.016,33.976
35.021,33.959
35.027,33.944
35.032,33.931
35.037,33.92
35.039,33.91
35.04,33.901
35.039,33.893
35.035,33.885
35.028,33.877
35.018,33.869
35.007,33.863
34.993,33.864
34.978,33.873
34.962,33.89
34.946,33.911
34.931,33.935
34.916,33.958
34.902,33.978
34.889,33.992
34.876,33.998
34.863,33.996
34.849,33.986
34.834,33.968
34.817,33.945
34.799,33.916
34.781,33.884
34.765,33.85
34.749,33.817
34.734,33.785
34.721,33.756
34.71,33.734
34.699,33.719
34.691,33.715
34.684,33.722
34.679,33.743
34.675,33.776
34.672,33.823
34.669,33.882
34.666,33.953
34.664,34.034
34.663,34.125
34.663,34.225
34.664,34.333
34.667,34.449
34.671,34.571
34.676,34.698
34.682,34.825
34.687,34.951
34.693,35.072
34.698,35.189
34.703,35.298
34.707,35.399
34.711,35.491
34.716,35.573
34.722,35.645
34.732,35.706
34.746,35.756
34.765,35.796
34.792,35.828
34.828,35.854
34.876,35.873
34.936,35.888
35.009,35.899
35.094,35.906
35.187,35.911
35.286,35.915
35.389,35.918
35.493,35.92
35.595,35.922
35.694,35.925
35.786,35.93
35.871,35.936
35.947,35.946
36.014,35.957
36.071,35.97
36.119,35.982
36.159,35.993
36.192,36.004
36.217,36.015
36.237,36.024
36.252,36.033
36.261,36.04
36.265,36.047
36.266,36.054
36.264,36.06
36.258,36.066
36.251,36.07
36.243,36.072
36.234,36.073
36.226,36.073
36.218,36.071
36.211,36.068
36.206,36.062
36.203,36.052
36.202,36.039
36.201,36.023
36.2,36.004
36.199,35.984
36.198,35.964
36.197,35.945
36.196,35.927
36.194,35.91
36.193,35.893
36.192,35.877
36.193,35.863
36.194,35.852
36.197,35.843
36.2,35.838
36.204,35.836
36.207,35.837
36.21,35.839
36.211,35.84
36.21,35.839
36.207,35.837
36.203,35.833
36.198,35.829
36.192,35.827
36.185,35.825
36.177,35.824
36.169,35.823
36.159,35.82
36.149,35.814
36.137,35.805
36.124,35.795
36.111,35.783
36.096,35.772
36.081,35.761
36.065,35.75
36.048,35.738
36.031,35.727
36.014,35.715
35.997,35.702
35.983,35.689
35.971,35.675
35.962,35.659
35.958,35.643
35.958,35.626
35.962,35.609
35.97,35.592
35.981,35.575
35.993,35.557
36.006,35.538
36.019,35.519
36.03,35.498
36.039,35.477
36.046,35.455
36.051,35.431
36.054,35.407
36.055,35.382
36.054,35.357
36.051,35.331
36.046,35.307
36.039,35.285
36.03,35.265
36.019,35.246
36.006,35.23
35.991,35.215
35.974,35.2
35.954,35.186
35.932,35.17
35.907,35.153
35.881,35.134
35.853,35.114
35.824,35.093
35.795,35.071
35.766,35.05
35.74,35.029
35.716,35.008
35.695,34.988
35.677,34.97
35.66,34.953
35.645,34.937
35.63,34.922
35.615,34.908
35.6,34.895
35.585,34.882
35.57,34.871
35.556,34.86
35.543,34.851
35.532,34.841
35.523,34.831
35.516,34.82
35.512,34.807
35.509,34.795
35.507,34.782
35.507,34.77
35.507,34.759
35.509,34.749
35.51,34.738
35.51,34.728
35.509,34.717
35.507,34.706
35.502,34.695
35.495,34.682
35.487,34.667
35.476,34.652
35.464,34.635
35.45,34.618
35.435,34.601
35.419,34.585
35.403,34.57
35.385,34.556
35.366,34.544
35.345,34.534
35.322,34.525
35.299,34.517
35.275,34.509
35.251,34.499
35.229,34.489
35.209,34.479
35.192,34.469
35.178,34.458
35.167,34.447
35.16,34.435
35.156,34.422
35.155,34.407
35.156,34.389
35.159,34.37
35.162,34.35
35.166,34.329
35.169,34.308
35.17,34.288
35.17,34.27
35.167,34.253
35.162,34.24
35.155,34.23
35.145,34.223
35.134,34.219
35.122,34.216
35.109,34.214
35.096,34.213
35.084,34.212
35.073,34.211
35.062,34.209
35.051,34.208
35.04,34.207
35.029,34.205
35.017,34.203
35.004,34.2
34.991,34.195
34.978,34.188
34.966,34.179
34.955,34.169
34.944,34.157
34.936,34.143
34.929,34.128
34.922,34.115
34.917,34.103
34.912,34.092
34.907,34.083
34.901,34.074
34.893,34.064
34.884,34.052
34.874,34.04
34.861,34.027
34.847,34.015
34.831,34.004
34.815,33.994
34.798,33.987
34.782,33.983
34.767,33.984
34.754,33.989
34.743,34.002
34.735,34.021
34.726,34.05
34.714,34.09
34.699,34.141
34.682,34.203
34.665,34.278
34.65,34.365
34.638,34.464
34.63,34.573
34.628,34.69
34.633,34.815
34.646,34.943
34.667,35.072
34.697,35.199
34.736,35.321
34.784,35.436
34.84,35.546
34.902,35.648
34.97,35.744
35.042,35.834
35.117,35.918
35.193,35.995
35.27,36.066
35.347,36.13
35.423,36.188
35.499,36.239
35.573,36.282
35.647,36.318
35.72,36.345
35.79,36.364
35.858,36.373
35.924,36.374
35.986,36.367
36.043,36.354
36.094,36.336
36.141,36.318
36.181,36.299
36.217,36.283
36.249,36.27
36.277,36.261
36.302,36.259
36.325,36.265
36.346,36.279
36.364,36.301
36.379,36.33
36.391,36.365
36.4,36.404
36.407,36.444
36.413,36.483
36.417,36.519
36.419,36.551
36.421,36.577
36.421,36.597
36.422,36.609
36.423,36.615
36.425,36.614
36.426,36.608
36.428,36.598
36.429,36.586
36.431,36.571
36.434,36.557
36.437,36.542
36.44,36.529
36.444,36.515
36.447,36.502
36.449,36.488
36.45,36.472
36.448,36.456
36.446,36.44
36.441,36.424
36.435,36.409
36.43,36.394
36.425,36.379
36.421,36.364
36.418,36.349
36.416,36.335
36.413,36.321
36.409,36.307
36.404,36.294
36.397,36.28
36.389,36.267
36.38,36.254
36.369,36.241
36.357,36.227
36.344,36.213
36.331,36.199
36.319,36.184
36.307,36.172
36.297,36.161
36.288,36.15
36.28,36.14
36.273,36.13
36.265,36.118
36.256,36.106
36.246,36.093
36.236,36.079
36.225,36.066
36.213,36.053
36.202,36.041
36.191,36.03
36.182,36.019
36.174,36.008
36.167,35.996
36.162,35.984
36.157,35.97
36.153,35.954
36.148,35.936
36.141,35.915
36.13,35.892
36.116,35.868
36.101,35.842
36.086,35.814
36.071,35.786
36.059,35.759
36.05,35.732
36.043,35.707
36.039,35.682
36.038,35.658
36.038,35.635
36.04,35.613
36.042,35.592
36.044,35.572
36.045,35.555
36.044,35.538
36.041,35.523
36.035,35.509
36.026,35.496
36.014,35.482
35.999,35.469
35.981,35.455
35.961,35.439
35.94,35.422
35.919,35.403
35.897,35.382
35.876,35.362
35.855,35.342
35.834,35.323
35.813,35.305
35.793,35.289
35.772,35.274
35.752,35.261
35.732,35.25
35.713,35.239
35.695,35.229
35.677,35.218
35.662,35.207
35.647,35.196
35.634,35.184
35.622,35.172
35.61,35.159
35.598,35.147
35.585,35.134
35.571,35.12
35.556,35.106
35.541,35.091
35.525,35.076
35.509,35.059
35.495,35.042
35.481,35.024
35.469,35.005
35.459,34.986
35.451,34.968
35.445,34.95
35.44,34.932
35.436,34.915
35.432,34.901
35.427,34.893
35.42,34.895
35.411,34.906
35.4,34.923
35.388,34.943
35.373,34.964
35.358,34.982
35.342,34.996
35.326,35.003
35.311,35.003
35.297,34.993
35.284,34.974
35.273,34.945
35.264,34.909
35.257,34.865
35.252,34.817
35.249,34.767
35.245,34.717
35.242,34.668
35.238,34.621
35.233,34.577
35.228,34.536
35.221,34.499
35.213,34.467
35.204,34.44
35.194,34.418
35.182,34.401
35.169,34.388
35.156,34.378
35.143,34.372
35.129,34.367
35.115,34.364
35.098,34.362
35.08,34.361
35.059,34.363
35.036,34.366
35.01,34.371
34.984,34.375
34.956,34.377
34.93,34.378
34.904,34.376
34.88,34.372
34.859,34.367
34.841,34.36
34.826,34.351
34.815,34.34
34.808,34.327
34.804,34.311
34.802,34.293
34.803,34.275
34.806,34.258
34.809,34.243
34.813,34.231
34.817,34.221
34.82,34.213
34.823,34.205
34.826,34.198
34.828,34.191
34.831,34.185
34.834,34.179
34.836,34.175
34.839,34.174
34.844,34.175
34.852,34.179
34.865,34.186
34.884,34.197
34.91,34.212
34.944,34.233
34.987,34.263
35.038,34.304
35.099,34.355
35.169,34.417
35.248,34.489
35.335,34.569
35.429,34.658
35.528,34.755
35.631,34.862
35.735,34.977
35.839,35.099
35.938,35.227
36.031,35.357
36.117,35.487
36.194,35.614
36.261,35.735
36.32,35.85
36.37,35.957
36.412,36.056
36.445,36.145
36.472,36.225
36.492,36.295
36.508,36.357
36.52,36.41
36.529,36.454
36.536,36.489
36.541,36.516
36.545,36.537
36.547,36.551
36.548,36.561
36.547,36.568
36.546,36.572
36.545,36.574
36.545,36.575
36.546,36.576
36.55,36.577
36.555,36.579
36.562,36.582
36.57,36.587
36.579,36.594
36.588,36.604
36.596,36.616
36.603,36.631
36.61,36.646
36.615,36.661
36.62,36.675
36.624,36.689
36.628,36.702
36.631,36.714
36.634,36.725
36.636,36.735
36.637,36.745
36.636,36.753
36.634,36.761
36.63,36.767
36.624,36.771
36.616,36.771
36.606,36.768
36.594,36.763
36.579,36.754
36.564,36.743
36.549,36.73
36.534,36.714
36.519,36.696
36.503,36.677
36.488,36.656
36.471,36.633
36.454,36.611
36.435,36.589
36.415,36.568
36.395,36.55
36.373,36.533
36.352,36.52
36.332,36.508
36.314,36.497
36.298,36.488
36.287,36.475
36.28,36.457
36.277,36.435
36.277,36.408
36.28,36.381
36.285,36.354
36.292,36.33
36.3,36.31
36.307,36.295
36.315,36.286
36.321,36.282
36.326,36.285
36.33,36.293
36.334,36.306
36.336,36.323
36.336,36.342
36.337,36.361
36.336,36.377
36.333,36.391
36.328,36.398
36.319,36.401
36.307,36.398
36.293,36.389
36.274,36.375
36.254,36.354
36.232,36.328
36.209,36.298
36.186,36.264
36.163,36.229
36.141,36.194
36.119,36.161
36.098,36.129
36.078,36.099
36.058,36.07
36.038,36.041
36.018,36.011
35.997,35.981
35.977,35.951
35.957,35.92
35.938,35.889
35.92,35.86
35.904,35.831
35.89,35.803
35.877,35.777
35.866,35.752
35.855,35.727
35.845,35.704
35.833,35.681
35.821,35.659
35.807,35.637
35.792,35.616
35.775,35.594
35.758,35.572
35.738,35.551
35.716,35.531
35.691,35.512
35.664,35.494
35.636,35.477
35.609,35.461
35.582,35.447
35.555,35.434
35.531,35.421
35.508,35.409
35.487,35.396
35.469,35.382
35.454,35.366
35.441,35.351
35.428,35.335
35.417,35.319
35.406,35.304
35.397,35.289
35.39,35.275
35.384,35.26
35.379,35.245
35.376,35.23
35.373,35.216
35.37,35.2
35.366,35.185
35.358,35.169
35.347,35.154
35.331,35.14
35.311,35.126
35.286,35.114
35.26,35.102
35.232,35.09
35.205,35.078
35.18,35.066
35.158,35.053
35.139,35.04
35.125,35.028
35.115,35.016
35.11,35.004
35.108,34.993
35.109,34.983
35.112,34.972
35.115,34.961
35.118,34.947
35.121,34.931
35.121,34.913
35.121,34.892
35.119,34.869
35.116,34.845
35.112,34.82
35.106,34.796
35.1,34.773
35.094,34.751
35.086,34.734
35.078,34.719
35.069,34.708
35.058,34.699
35.046,34.69
35.033,34.681
35.018,34.672
35.002,34.661
34.986,34.649
34.968,34.637
34.951,34.625
34.933,34.613
34.915,34.602
34.896,34.592
34.878,34.58
34.861,34.567
34.845,34.551
34.83,34.533
34.817,34.513
34.805,34.491
34.793,34.47
34.781,34.451
34.767,34.433
34.753,34.417
34.737,34.403
34.721,34.389
34.703,34.376
34.686,34.364
34.669,34.353
34.654,34.344
34.641,34.336
34.632,34.328
34.627,34.321
34.627,34.314
34.633,34.309
34.646,34.306
34.667,34.304
34.696,34.303
34.735,34.302
34.784,34.301
34.844,34.297
34.914,34.292
34.995,34.287
35.086,34.282
35.188,34.281
35.298,34.282
35.415,34.288
35.537,34.299
35.661,34.315
35.787,34.338
35.91,34.37
36.029,34.413
36.141,34.468
36.245,34.538
36.339,34.622
36.422,34.722
36.494,34.836
36.557,34.962
36.611,35.099
36.657,35.243
36.697,35.391
36.732,35.542
36.762,35.691
36.787,35.836
36.808,35.975
36.826,36.106
36.84,36.226
36.852,36.335
36.862,36.433
36.87,36.52
36.877,36.596
36.883,36.661
36.889,36.716
36.894,36.761
36.899,36.797
36.903,36.825
36.907,36.847
36.911,36.861
36.915,36.871
36.919,36.877
36.925,36.88
36.931,36.883
36.939,36.886
36.949,36.889
36.961,36.894
36.975,36.9
36.989,36.907
37.005,36.915
37.02,36.925
37.035,36.936
37.049,36.948
37.061,36.959
37.07,36.969
37.076,36.979
37.077,36.988
37.074,36.997
37.067,37.005
37.055,37.014
37.04,37.022
37.021,37.029
37,37.036
36.976,37.04
36.949,37.042
36.92,37.041
36.89,37.037
36.859,37.03
36.828,37.02
36.798,37.008
36.769,36.993
36.742,36.975
36.717,36.955
36.694,36.932
36.674,36.908
36.656,36.883
36.64,36.858
36.626,36.836
36.615,36.816
36.605,36.799
36.598,36.783
36.592,36.77
36.588,36.758
36.584,36.748
36.581,36.74
36.579,36.734
36.577,36.73
36.575,36.728
36.574,36.729
36.573,36.73
36.572,36.732
36.57,36.734
36.567,36.735
36.561,36.734
36.552,36.732
36.538,36.729
36.52,36.723
36.498,36.715
36.472,36.704
36.443,36.691
36.412,36.676
36.38,36.659
36.348,36.641
36.316,36.622
36.286,36.601
36.258,36.58
36.232,36.557
36.206,36.534
36.182,36.51
36.16,36.487
36.139,36.464
36.119,36.441
36.101,36.417
36.084,36.393
36.069,36.369
36.057,36.345
36.045,36.321
36.035,36.295
36.026,36.268
36.017,36.241
36.008,36.212
35.999,36.182
35.989,36.15
35.978,36.115
35.967,36.079
35.954,36.042
35.94,36.006
35.925,35.971
35.908,35.938
35.89,35.905
35.872,35.873
35.853,35.843
35.834,35.813
35.814,35.785
35.795,35.757
35.775,35.731
35.755,35.705
35.734,35.681
35.714,35.659
35.693,35.639
35.673,35.621
35.653,35.604
35.633,35.59
35.613,35.576
35.594,35.562
35.576,35.548
35.559,35.535
35.543,35.523
35.529,35.511
35.516,35.498
35.504,35.485
35.493,35.469
35.482,35.452
35.472,35.434
35.462,35.417
35.452,35.4
35.441,35.385
35.431,35.371
35.419,35.357
35.407,35.344
35.394,35.332
35.381,35.32
35.367,35.309
35.353,35.298
35.338,35.289
35.323,35.28
35.308,35.27
35.291,35.258
35.273,35.244
35.253,35.226
35.232,35.205
35.209,35.183
35.186,35.16
35.162,35.139
35.138,35.119
35.113,35.099
35.087,35.078
35.06,35.056
35.034,35.03
35.008,35.004
34.982,34.977
34.957,34.952
34.933,34.929
34.911,34.909
34.888,34.89
34.866,34.872
34.845,34.856
34.825,34.839
34.807,34.822
34.791,34.805
34.776,34.788
34.763,34.773
34.753,34.759
34.745,34.746
34.74,34.735
34.735,34.724
34.733,34.713
34.731,34.702
34.729,34.692
34.728,34.683
34.727,34.675
34.726,34.666
34.723,34.657
34.718,34.646
34.712,34.631
34.704,34.614
34.695,34.594
34.684,34.575
34.673,34.556
34.661,34.539
34.648,34.521
34.636,34.503
34.624,34.483
34.614,34.461
34.607,34.438
34.602,34.415
34.601,34.392
34.604,34.37
34.612,34.35
34.624,34.332
34.642,34.317
34.666,34.303
34.698,34.289
34.738,34.275
34.786,34.26
34.845,34.245
34.914,34.23
34.993,34.215
35.081,34.201
35.177,34.188
35.28,34.176
35.388,34.165
35.499,34.157
35.61,34.154
35.721,34.156
35.828,34.166
35.93,34.184
36.026,34.212
36.115,34.25
36.196,34.301
36.271,34.363
36.34,34.439
36.402,34.528
36.459,34.628
36.51,34.74
36.557,34.861
36.601,34.991
36.642,35.127
36.68,35.268
36.716,35.411
36.75,35.553
36.784,35.692
36.816,35.827
36.848,35.956
36.879,36.079
36.909,36.195
36.938,36.303
36.965,36.402
36.99,36.494
37.013,36.577
37.034,36.652
37.052,36.719
37.067,36.779
37.078,36.833
37.086,36.881
37.09,36.923
37.092,36.961
37.092,36.994
37.09,37.023
37.088,37.048
37.085,37.07
37.082,37.088
37.079,37.105
37.079,37.12
37.087,37.134
37.102,37.148
37.124,37.161
37.149,37.173
37.175,37.184
37.198,37.193
37.216,37.201
37.226,37.207
37.227,37.21
37.218,37.212
37.199,37.214
37.17,37.216
37.132,37.219
37.085,37.222
37.032,37.227
36.976,37.23
36.918,37.233
36.861,37.233
36.808,37.231
36.759,37.226
36.714,37.219
36.675,37.209
36.641,37.196
36.613,37.18
36.59,37.16
36.572,37.137
36.559,37.11
36.55,37.081
36.545,37.051
36.542,37.02
36.542,36.989
36.545,36.96
36.55,36.933
36.556,36.909
36.564,36.888
36.573,36.87
36.583,36.855
36.593,36.844
36.602,36.837
36.61,36.834
36.616,36.833
36.618,36.835
36.618,36.837
36.614,36.839
36.607,36.839
36.597,36.838
36.584,36.835
36.569,36.829
36.553,36.821
36.535,36.811
36.514,36.799
36.488,36.786
36.457,36.771
36.421,36.755
36.381,36.737
36.338,36.717
36.294,36.696
36.251,36.672
36.209,36.647
36.171,36.62
36.136,36.592
36.105,36.563
36.078,36.534
36.055,36.506
36.036,36.478
36.02,36.451
36.005,36.425
35.991,36.401
35.979,36.379
35.966,36.357
35.952,36.337
35.937,36.316
35.92,36.295
35.901,36.273
35.88,36.25
35.857,36.225
35.833,36.199
35.808,36.17
35.782,36.139
35.754,36.106
35.726,36.072
35.697,36.037
35.669,36.002
35.641,35.965
35.615,35.928
35.588,35.889
35.563,35.85
35.539,35.811
35.515,35.773
35.493,35.736
35.473,35.701
35.455,35.668
35.438,35.639
35.422,35.612
35.408,35.589
35.396,35.568
35.385,35.548
35.375,35.529
35.366,35.51
35.357,35.49
35.349,35.47
35.341,35.45
35.334,35.429
35.326,35.408
35.319,35.387
35.312,35.367
35.305,35.347
35.296,35.329
35.287,35.312
35.277,35.296
35.265,35.28
35.251,35.263
35.234,35.243
35.214,35.22
35.192,35.197
35.168,35.173
35.142,35.15
35.114,35.13
35.085,35.112
35.057,35.097
35.029,35.084
35.004,35.071
34.981,35.059
34.961,35.045
34.943,35.032
34.928,35.018
34.914,35.004
34.903,34.991
34.892,34.977
34.883,34.963
34.875,34.948
34.868,34.932
34.862,34.915
34.857,34.897
34.853,34.879
34.848,34.861
34.844,34.843
34.839,34.823
34.833,34.803
34.826,34.781
34.817,34.759
34.807,34.738
34.796,34.719
34.783,34.701
34.767,34.684
34.75,34.669
34.73,34.653
34.709,34.637
34.686,34.622
34.662,34.607
34.637,34.593
34.613,34.579
34.589,34.567
34.566,34.555
34.545,34.544
34.524,34.531
34.505,34.516
34.487,34.498
34.468,34.477
34.448,34.452
34.427,34.425
34.407,34.396
34.39,34.365
34.376,34.334
34.368,34.304
34.368,34.274
34.376,34.246
34.396,34.221
34.428,34.197
34.473,34.176
34.531,34.157
34.602,34.141
34.686,34.126
34.78,34.114
34.884,34.105
34.995,34.097
35.112,34.092
35.234,34.089
35.359,34.087
35.485,34.087
35.61,34.089
35.734,34.095
35.855,34.106
35.971,34.126
36.081,34.155
36.184,34.197
36.279,34.254
36.366,34.326
36.444,34.411
36.513,34.507
36.575,34.613
36.628,34.729
36.673,34.853
36.712,34.984
36.745,35.12
36.772,35.261
36.795,35.405
36.814,35.549
36.829,35.693
36.84,35.833
36.849,35.967
36.855,36.095
36.858,36.216
36.861,36.33
36.863,36.435
36.864,36.531
36.866,36.619
36.87,36.698
36.875,36.768
36.883,36.831
36.893,36.887
36.905,36.936
36.919,36.98
36.935,37.017
36.951,37.049
36.967,37.075
36.982,37.097
36.994,37.115
37.004,37.131
37.01,37.146
37.014,37.159
37.014,37.173
37.011,37.188
37.004,37.205
36.994,37.221
36.98,37.236
36.962,37.249
36.941,37.261
36.916,37.271
36.888,37.28
36.857,37.287
36.824,37.294
36.789,37.3
36.755,37.307
36.72,37.313
36.687,37.319
36.655,37.323
36.625,37.327
36.598,37.33
36.574,37.331
36.552,37.33
36.534,37.326
36.519,37.317
36.508,37.302
36.499,37.279
36.494,37.249
36.49,37.215
36.489,37.179
36.488,37.144
36.488,37.11
36.487,37.079
36.485,37.051
36.482,37.026
36.478,37.004
36.472,36.987
36.463,36.974
36.452,36.963
36.438,36.955
36.423,36.949
36.405,36.944
36.387,36.941
36.368,36.938
36.349,36.934
36.329,36.93
36.309,36.925
36.288,36.917
36.265,36.908
36.24,36.896
36.214,36.881
36.186,36.863
36.158,36.843
36.13,36.82
36.102,36.794
36.077,36.767
36.053,36.739
36.032,36.71
36.014,36.681
35.997,36.651
35.981,36.622
35.966,36.594
35.952,36.566
35.938,36.541
35.923,36.516
35.908,36.491
35.893,36.466
35.878,36.442
35.862,36.418
35.847,36.394
35.831,36.37
35.815,36.347
35.798,36.325
35.781,36.305
35.763,36.285
35.744,36.264
35.723,36.241
35.702,36.215
35.679,36.186
35.654,36.154
35.628,36.12
35.602,36.084
35.576,36.049
35.55,36.015
35.523,35.982
35.497,35.95
35.471,35.92
35.446,35.891
35.42,35.862
35.394,35.835
35.369,35.809
35.343,35.784
35.317,35.76
35.292,35.737
35.267,35.715
35.244,35.693
35.222,35.67
35.201,35.647
35.182,35.623
35.165,35.601
35.15,35.581
35.138,35.561
35.129,35.542
35.121,35.521
35.115,35.499
35.109,35.476
35.104,35.452
35.099,35.428
35.092,35.406
35.083,35.385
35.074,35.365
35.064,35.345
35.054,35.324
35.044,35.301
35.032,35.276
35.018,35.251
35.001,35.224
34.981,35.197
34.958,35.165
34.931,35.125
34.903,35.077
34.873,35.022
34.842,34.964
34.811,34.907
34.78,34.855
34.75,34.812
34.722,34.78
34.697,34.758
34.674,34.746
34.655,34.742
34.639,34.742
34.625,34.747
34.614,34.755
34.605,34.766
34.597,34.779
34.59,34.792
34.582,34.803
34.575,34.81
34.568,34.81
34.561,34.804
34.553,34.791
34.545,34.774
34.536,34.753
34.525,34.73
34.514,34.706
34.503,34.681
34.491,34.656
34.477,34.631
34.463,34.606
34.447,34.582
34.428,34.56
34.407,34.54
34.382,34.523
34.356,34.507
34.328,34.491
34.3,34.474
34.272,34.458
34.246,34.44
34.223,34.423
34.203,34.406
34.189,34.389
34.18,34.372
34.178,34.355
34.184,34.337
34.2,34.318
34.226,34.296
34.263,34.272
34.31,34.247
34.368,34.223
34.436,34.201
34.514,34.182
34.601,34.165
34.697,34.151
34.801,34.139
34.914,34.129
35.033,34.125
35.156,34.127
35.281,34.138
35.408,34.159
35.533,34.192
35.656,34.238
35.775,34.296
35.889,34.368
35.998,34.452
36.099,34.55
36.194,34.661
36.282,34.782
36.361,34.913
36.433,35.051
36.497,35.193
36.554,35.339
36.603,35.486
36.645,35.632
36.681,35.775
36.71,35.915
36.734,36.049
36.752,36.177
36.765,36.298
36.777,36.41
36.792,36.512
36.811,36.604
36.832,36.683
36.856,36.751
36.88,36.808
36.902,36.854
36.921,36.89
36.935,36.92
36.944,36.943
36.948,36.962
36.945,36.979
36.937,36.995
36.924,37.01
36.908,37.023
36.89,37.036
36.872,37.046
36.854,37.055
36.839,37.063
36.826,37.069
36.817,37.074
36.81,37.076
36.806,37.077
36.803,37.077
36.802,37.076
36.801,37.074
36.801,37.071
36.802,37.066
36.802,37.06
36.802,37.053
36.8,37.044
36.795,37.034
36.788,37.02
36.776,37.005
36.759,36.987
36.739,36.967
36.716,36.945
36.689,36.922
36.662,36.897
36.635,36.873
36.607,36.848
36.581,36.823
36.556,36.796
36.534,36.768
36.512,36.738
36.493,36.706
36.476,36.673
36.461,36.641
36.447,36.61
36.435,36.582
36.424,36.557
36.415,36.534
36.407,36.513
36.401,36.493
36.397,36.474
36.395,36.455
36.395,36.44
36.397,36.427
36.401,36.418
36.405,36.411
36.41,36.406
36.414,36.401
36.417,36.396
36.417,36.391
36.415,36.386
36.409,36.381
36.4,36.377
36.387,36.374
36.37,36.37
36.35,36.364
36.326,36.356
36.298,36.345
36.268,36.33
36.234,36.311
36.198,36.289
36.16,36.264
36.121,36.238
36.082,36.21
36.042,36.18
36.002,36.147
35.962,36.11
35.924,36.07
35.888,36.027
35.854,35.984
35.822,35.941
35.792,35.899
35.763,35.857
35.734,35.815
35.707,35.775
35.68,35.735
35.654,35.698
35.628,35.664
35.602,35.634
35.577,35.608
35.554,35.585
35.531,35.564
35.51,35.544
35.49,35.525
35.472,35.504
35.455,35.482
35.44,35.457
35.426,35.43
35.412,35.4
35.398,35.367
35.383,35.333
35.37,35.298
35.357,35.261
35.345,35.224
35.335,35.187
35.326,35.151
35.317,35.114
35.306,35.079
35.295,35.044
35.282,35.01
35.268,34.979
35.253,34.95
35.236,34.925
35.218,34.903
35.198,34.884
35.176,34.868
35.153,34.854
35.13,34.841
35.106,34.829
35.082,34.817
35.058,34.805
35.035,34.793
35.012,34.781
34.989,34.767
34.967,34.754
34.947,34.739
34.927,34.723
34.909,34.707
34.892,34.688
34.877,34.666
34.864,34.641
34.852,34.613
34.841,34.583
34.831,34.553
34.821,34.524
34.812,34.498
34.803,34.475
34.794,34.455
34.784,34.438
34.773,34.423
34.76,34.409
34.745,34.397
34.728,34.384
34.707,34.372
34.685,34.361
34.661,34.349
34.636,34.337
34.611,34.324
34.586,34.311
34.563,34.297
34.541,34.281
34.521,34.264
34.504,34.246
34.488,34.227
34.473,34.207
34.46,34.188
34.447,34.168
34.435,34.148
34.423,34.128
34.411,34.108
34.399,34.088
34.386,34.069
34.372,34.05
34.358,34.032
34.343,34.012
34.329,33.993
34.316,33.973
34.303,33.954
34.291,33.935
34.279,33.916
34.267,33.898
34.256,33.88
34.244,33.861
34.233,33.842
34.222,33.823
34.211,33.803
34.201,33.783
34.191,33.763
34.185,33.744
34.182,33.725
34.184,33.706
34.193,33.688
34.211,33.671
34.24,33.657
34.279,33.646
34.331,33.64
34.393,33.64
34.466,33.648
34.55,33.666
34.643,33.694
34.745,33.734
34.854,33.788
34.97,33.854
35.092,33.934
35.217,34.026
35.345,34.13
35.472,34.245
35.599,34.371
35.723,34.506
35.843,34.65
35.958,34.801
36.065,34.958
36.165,35.12
36.256,35.282
36.338,35.444
36.41,35.602
36.473,35.754
36.527,35.9
36.571,36.038
36.608,36.167
36.638,36.288
36.662,36.399
36.681,36.502
36.696,36.595
36.707,36.68
36.714,36.755
36.719,36.822
36.722,36.882
36.723,36.935
36.725,36.982
36.726,37.022
36.729,37.055
36.733,37.082
36.739,37.103
36.748,37.12
36.76,37.134
36.774,37.145
36.791,37.155
36.809,37.165
36.827,37.175
36.845,37.186
36.861,37.196
36.875,37.206
36.886,37.216
36.895,37.226
36.902,37.234
36.906,37.242
36.908,37.248
36.907,37.253
36.903,37.256
36.895,37.259
36.884,37.262
36.869,37.264
36.849,37.265
36.826,37.266
36.799,37.266
36.769,37.264
36.736,37.261
36.702,37.256
36.668,37.248
36.635,37.237
36.604,37.222
36.576,37.204
36.549,37.183
36.525,37.158
36.503,37.131
36.482,37.101
36.462,37.069
36.443,37.034
36.425,36.999
36.406,36.964
36.387,36.929
36.368,36.896
36.35,36.865
36.334,36.836
36.319,36.808
36.307,36.783
36.296,36.76
36.287,36.739
36.278,36.722
36.27,36.709
36.262,36.699
36.253,36.691
36.244,36.684
36.234,36.676
36.224,36.668
36.215,36.658
36.207,36.647
36.199,36.636
36.192,36.625
36.185,36.615
36.178,36.605
36.17,36.593
36.16,36.581
36.148,36.566
36.134,36.549
36.117,36.529
36.099,36.506
36.078,36.479
36.056,36.448
36.033,36.413
36.009,36.375
35.984,36.334
35.957,36.291
35.93,36.246
35.902,36.202
35.872,36.159
35.842,36.118
35.812,36.078
35.781,36.04
35.751,36.003
35.721,35.966
