Trial 3:3back,Trial 5:3back
33.438,41.262
33.401,41.107
33.367,40.939
33.336,40.761
33.307,40.573
33.278,40.377
33.25,40.175
33.221,39.967
33.191,39.756
33.161,39.543
33.132,39.329
33.104,39.116
33.076,38.904
33.049,38.696
33.024,38.493
33,38.296
32.98,38.102
32.963,37.914
32.949,37.729
32.938,37.547
32.93,37.369
32.924,37.192
32.919,37.017
32.915,36.844
32.911,36.673
32.905,36.505
32.898,36.343
32.887,36.188
32.873,36.042
32.856,35.908
32.837,35.786
32.816,35.679
32.794,35.589
32.77,35.515
32.745,35.46
32.719,35.424
32.695,35.404
32.672,35.402
32.653,35.416
32.637,35.446
32.626,35.49
32.62,35.548
32.621,35.618
32.63,35.697
32.647,35.783
32.675,35.874
32.714,35.966
32.768,36.057
32.839,36.145
32.93,36.23
33.041,36.311
33.175,36.387
33.334,36.458
33.518,36.523
33.727,36.583
33.959,36.637
34.213,36.684
34.486,36.723
34.774,36.752
35.076,36.77
35.388,36.776
35.707,36.77
36.029,36.75
36.352,36.718
36.671,36.674
36.985,36.618
37.289,36.551
37.58,36.475
37.854,36.391
38.109,36.301
38.341,36.205
38.551,36.102
38.736,35.995
38.894,35.883
39.024,35.767
39.126,35.65
39.198,35.531
39.242,35.41
39.258,35.29
39.248,35.168
39.213,35.045
39.156,34.92
39.078,34.794
38.982,34.667
38.871,34.541
38.749,34.415
38.619,34.291
38.482,34.169
38.341,34.051
38.2,33.938
38.059,33.832
37.921,33.731
37.785,33.637
37.654,33.549
37.526,33.467
37.403,33.39
37.284,33.319
37.168,33.251
37.056,33.189
36.946,33.13
36.838,33.076
36.733,33.026
36.631,32.979
36.53,32.937
36.431,32.897
36.333,32.861
36.236,32.828
36.14,32.799
36.044,32.773
35.949,32.748
35.856,32.724
35.764,32.7
35.675,32.676
35.588,32.65
35.504,32.622
35.425,32.592
35.35,32.559
35.282,32.525
35.221,32.49
35.169,32.454
35.124,32.417
35.087,32.381
35.06,32.346
35.041,32.312
35.033,32.281
35.033,32.252
35.043,32.226
35.061,32.203
35.088,32.182
35.121,32.165
35.16,32.152
35.204,32.145
35.246,32.146
35.278,32.154
35.298,32.174
35.307,32.208
35.306,32.263
35.299,32.345
35.289,32.46
35.279,32.616
35.271,32.816
35.265,33.066
35.263,33.366
35.265,33.715
35.271,34.109
35.279,34.541
35.287,35.007
35.295,35.497
35.299,36.004
35.298,36.521
35.291,37.041
35.278,37.555
35.257,38.058
35.229,38.545
35.193,39.011
35.151,39.451
35.103,39.864
35.049,40.246
34.99,40.596
34.926,40.91
34.859,41.189
34.787,41.431
34.714,41.636
34.639,41.803
34.563,41.934
34.488,42.03
34.413,42.09
34.338,42.118
34.263,42.115
34.191,42.083
34.12,42.024
34.053,41.939
33.99,41.832
33.932,41.705
33.879,41.56
33.831,41.399
33.788,41.226
33.749,41.043
33.713,40.852
33.68,40.654
33.65,40.451
33.621,40.246
33.594,40.041
33.569,39.835
33.544,39.631
33.522,39.429
33.501,39.231
33.48,39.036
33.461,38.846
33.443,38.66
33.425,38.479
33.409,38.303
33.393,38.132
33.377,37.964
33.362,37.8
33.348,37.639
33.333,37.48
33.318,37.323
33.304,37.169
33.29,37.018
33.277,36.87
33.264,36.725
33.25,36.586
33.235,36.452
33.219,36.326
33.203,36.207
33.185,36.097
33.168,35.996
33.151,35.907
33.134,35.829
33.117,35.766
33.1,35.717
33.081,35.682
33.061,35.662
33.04,35.657
33.018,35.667
32.996,35.691
32.973,35.728
32.95,35.776
32.926,35.834
32.901,35.9
32.878,35.974
32.858,36.053
32.842,36.136
32.83,36.221
32.824,36.305
32.826,36.386
32.835,36.462
32.853,36.531
32.884,36.592
32.931,36.644
32.997,36.689
33.085,36.727
33.196,36.757
33.332,36.778
33.493,36.788
33.68,36.787
33.892,36.775
34.127,36.75
34.385,36.711
34.662,36.66
34.956,36.595
35.262,36.52
35.578,36.434
35.901,36.341
36.226,36.241
36.552,36.137
36.874,36.028
37.19,35.917
37.495,35.803
37.786,35.689
38.06,35.574
38.314,35.459
38.545,35.343
38.751,35.227
38.93,35.109
39.079,34.991
39.198,34.873
39.288,34.756
39.348,34.64
39.381,34.526
39.387,34.415
39.368,34.306
39.326,34.2
39.263,34.099
39.181,34.001
39.083,33.908
38.97,33.818
38.846,33.733
38.714,33.652
38.575,33.575
38.433,33.503
38.291,33.434
38.149,33.369
38.01,33.307
37.872,33.249
37.738,33.194
37.608,33.142
37.481,33.091
37.357,33.044
37.238,32.998
37.124,32.956
37.014,32.917
36.908,32.88
36.805,32.845
36.704,32.812
36.605,32.783
36.506,32.756
36.409,32.733
36.311,32.712
36.215,32.694
36.123,32.685
36.037,32.691
35.96,32.709
35.889,32.735
35.824,32.765
35.765,32.792
35.708,32.812
35.654,32.821
35.601,32.818
35.55,32.8
35.5,32.769
35.453,32.725
35.409,32.67
35.368,32.609
35.332,32.545
35.299,32.482
35.272,32.425
35.25,32.378
35.235,32.347
35.229,32.337
35.23,32.356
35.239,32.409
35.255,32.502
35.276,32.641
35.304,32.829
35.336,33.068
35.372,33.359
35.409,33.699
35.447,34.085
35.482,34.511
35.514,34.971
35.543,35.458
35.567,35.964
35.587,36.482
35.602,37.006
35.61,37.529
35.611,38.045
35.603,38.548
35.586,39.031
35.56,39.49
35.526,39.919
35.484,40.316
35.436,40.678
35.383,41.002
35.324,41.286
35.261,41.53
35.193,41.731
35.122,41.89
35.049,42.007
34.976,42.084
34.901,42.123
34.827,42.127
34.754,42.099
34.681,42.04
34.61,41.954
34.541,41.843
34.475,41.71
34.412,41.558
34.352,41.388
34.295,41.205
34.241,41.011
34.188,40.807
34.136,40.598
34.087,40.385
34.039,40.17
33.993,39.955
33.948,39.742
33.903,39.532
33.858,39.326
33.811,39.125
33.764,38.931
33.716,38.743
33.67,38.561
33.625,38.385
33.582,38.216
33.54,38.052
33.501,37.893
33.465,37.737
33.431,37.584
33.401,37.434
33.374,37.288
33.349,37.145
33.327,37.005
33.307,36.869
33.288,36.737
33.27,36.61
33.252,36.488
33.237,36.371
33.223,36.262
33.21,36.16
33.198,36.068
33.186,35.987
33.174,35.918
33.161,35.862
33.147,35.819
33.132,35.788
33.117,35.769
33.1,35.761
33.081,35.765
33.06,35.78
33.038,35.805
33.016,35.841
32.995,35.888
32.975,35.943
32.956,36.007
32.938,36.078
32.922,36.154
32.906,36.234
32.891,36.314
32.876,36.394
32.862,36.472
32.847,36.544
32.831,36.609
32.815,36.665
32.799,36.712
32.783,36.748
32.768,36.772
32.754,36.783
32.743,36.783
32.735,36.77
32.731,36.745
32.733,36.709
32.741,36.662
32.759,36.604
32.786,36.534
32.826,36.455
32.882,36.368
32.957,36.274
33.055,36.176
33.178,36.074
33.327,35.97
33.503,35.864
33.704,35.757
33.929,35.648
34.175,35.538
34.439,35.426
34.719,35.312
35.011,35.197
35.312,35.08
35.62,34.964
35.93,34.848
36.241,34.735
36.548,34.624
36.851,34.516
37.146,34.412
37.431,34.312
37.704,34.217
37.961,34.126
38.2,34.039
38.417,33.954
38.611,33.873
38.779,33.794
38.919,33.718
39.031,33.645
39.114,33.574
39.169,33.507
39.196,33.442
39.195,33.381
39.17,33.323
39.12,33.267
39.05,33.214
38.96,33.164
38.855,33.115
38.736,33.067
38.608,33.022
38.473,32.979
38.333,32.939
38.192,32.9
38.05,32.865
37.91,32.832
37.772,32.803
37.636,32.775
37.503,32.749
37.374,32.724
37.248,32.7
37.127,32.676
37.009,32.652
36.896,32.628
36.787,32.604
36.68,32.58
36.576,32.557
36.473,32.535
36.372,32.512
36.272,32.49
36.174,32.466
36.076,32.44
35.979,32.413
35.883,32.385
35.789,32.356
35.697,32.326
35.607,32.298
35.521,32.275
35.44,32.26
35.365,32.255
35.295,32.267
35.232,32.3
35.176,32.36
35.129,32.454
35.091,32.586
35.062,32.76
35.041,32.98
35.027,33.247
35.021,33.562
35.022,33.919
35.031,34.317
35.046,34.748
35.068,35.207
35.095,35.686
35.127,36.181
35.164,36.684
35.203,37.188
35.244,37.689
35.286,38.181
35.328,38.658
35.37,39.117
35.409,39.553
35.445,39.961
35.478,40.337
35.504,40.68
35.526,40.983
35.541,41.243
35.549,41.458
35.55,41.626
35.545,41.748
35.533,41.826
35.516,41.861
35.493,41.858
35.465,41.819
35.433,41.747
35.396,41.646
35.354,41.52
35.308,41.372
35.259,41.205
35.206,41.024
35.151,40.832
35.093,40.631
35.032,40.422
34.969,40.21
34.904,39.993
34.839,39.776
34.774,39.56
34.708,39.347
34.641,39.136
34.574,38.93
34.506,38.728
34.437,38.531
34.368,38.34
34.298,38.155
34.229,37.976
34.16,37.804
34.092,37.637
34.026,37.477
33.963,37.321
33.904,37.169
33.848,37.019
33.798,36.873
33.752,36.728
33.711,36.586
33.675,36.447
33.642,36.312
33.614,36.183
33.589,36.06
33.566,35.946
33.545,35.84
33.526,35.745
33.508,35.661
33.492,35.589
33.478,35.53
33.464,35.485
33.451,35.455
33.438,35.439
33.425,35.439
33.412,35.452
33.4,35.478
33.387,35.514
33.375,35.56
33.363,35.616
33.351,35.679
33.339,35.748
33.328,35.823
33.318,35.902
33.309,35.983
33.3,36.065
33.292,36.145
33.285,36.222
33.278,36.294
33.272,36.36
33.269,36.417
33.268,36.465
33.267,36.502
33.266,36.528
33.264,36.541
33.259,36.542
33.25,36.531
33.238,36.508
33.221,36.475
33.201,36.431
33.177,36.378
33.151,36.315
33.123,36.243
33.092,36.164
33.061,36.078
33.03,35.987
33.002,35.89
32.978,35.79
32.961,35.686
32.951,35.581
32.952,35.474
32.965,35.368
32.993,35.262
33.039,35.157
33.105,35.053
33.193,34.949
33.304,34.847
33.44,34.746
33.602,34.646
33.787,34.548
33.997,34.452
34.229,34.359
34.48,34.268
34.749,34.18
35.032,34.096
35.325,34.013
35.625,33.933
35.929,33.854
36.234,33.777
36.537,33.701
36.836,33.628
37.128,33.556
37.41,33.485
37.678,33.416
37.93,33.349
38.164,33.283
38.378,33.22
38.569,33.16
38.735,33.104
38.875,33.053
38.988,33.006
39.074,32.965
39.132,32.928
39.163,32.895
39.167,32.866
39.147,32.841
39.103,32.819
39.038,32.801
38.955,32.785
38.856,32.772
38.745,32.76
38.625,32.748
38.495,32.736
38.36,32.724
38.221,32.709
38.08,32.691
37.939,32.67
37.8,32.645
37.663,32.616
37.53,32.583
37.401,32.549
37.276,32.512
37.154,32.473
37.036,32.433
36.922,32.392
36.811,32.351
36.703,32.309
36.596,32.267
36.492,32.228
36.389,32.191
36.287,32.162
36.187,32.141
36.087,32.132
35.988,32.14
35.89,32.168
35.793,32.221
35.697,32.304
35.605,32.419
35.517,32.573
35.433,32.767
35.355,33.004
35.283,33.283
35.219,33.604
35.161,33.965
35.113,34.362
35.074,34.79
35.045,35.244
35.027,35.716
35.017,36.2
35.014,36.689
35.017,37.178
35.025,37.662
35.039,38.135
35.058,38.593
35.081,39.032
35.107,39.445
35.137,39.829
35.17,40.18
35.205,40.494
35.244,40.769
35.286,41.003
35.329,41.196
35.371,41.346
35.411,41.453
35.447,41.517
35.477,41.539
35.501,41.522
35.518,41.469
35.527,41.383
35.527,41.269
35.519,41.13
35.502,40.971
35.477,40.793
35.445,40.6
35.406,40.395
35.362,40.181
35.315,39.96
35.263,39.735
35.209,39.509
35.153,39.282
35.095,39.056
35.036,38.832
34.975,38.613
34.913,38.4
34.849,38.193
34.784,37.992
34.717,37.797
34.65,37.609
34.583,37.427
34.515,37.25
34.448,37.079
34.381,36.911
34.315,36.745
34.251,36.582
34.189,36.421
34.129,36.262
34.072,36.106
34.017,35.954
33.964,35.808
33.913,35.671
33.865,35.543
33.82,35.428
33.777,35.325
33.737,35.238
33.7,35.168
33.667,35.115
33.636,35.081
33.608,35.065
33.581,35.065
33.553,35.081
33.521,35.111
33.484,35.155
33.444,35.211
33.403,35.276
33.362,35.35
33.322,35.431
33.286,35.518
33.254,35.608
33.227,35.699
33.205,35.79
33.188,35.879
33.175,35.965
33.166,36.047
33.161,36.124
33.157,36.194
33.156,36.257
33.155,36.31
33.156,36.353
33.157,36.383
33.158,36.402
33.159,36.408
33.159,36.402
33.157,36.385
33.153,36.358
33.146,36.321
33.138,36.276
33.128,36.224
33.117,36.164
33.105,36.098
33.091,36.025
33.075,35.946
33.059,35.86
33.043,35.769
33.027,35.674
33.011,35.573
32.996,35.469
32.98,35.36
32.962,35.249
32.943,35.136
32.922,35.022
32.902,34.907
32.883,34.793
32.865,34.679
32.85,34.567
32.84,34.459
32.836,34.356
32.84,34.258
32.855,34.165
32.884,34.076
32.931,33.992
32.997,33.913
33.087,33.842
33.2,33.779
33.34,33.724
33.507,33.675
33.701,33.633
33.922,33.593
34.168,33.557
34.435,33.52
34.719,33.481
35.018,33.439
35.327,33.393
35.643,33.342
35.963,33.287
36.283,33.229
36.601,33.171
36.913,33.111
37.216,33.053
37.509,32.996
37.788,32.942
38.051,32.891
38.295,32.844
38.518,32.801
38.719,32.762
38.894,32.728
39.044,32.697
39.167,32.669
39.261,32.644
39.327,32.622
39.364,32.603
39.374,32.586
39.359,32.57
39.321,32.554
39.262,32.539
39.185,32.525
39.092,32.511
38.985,32.497
38.866,32.483
38.739,32.467
38.605,32.449
38.467,32.43
38.327,32.408
38.185,32.383
38.044,32.355
37.903,32.324
37.765,32.291
37.63,32.259
37.499,32.227
37.372,32.199
37.249,32.175
37.13,32.158
37.014,32.151
36.901,32.159
36.79,32.184
36.683,32.232
36.577,32.305
36.474,32.409
36.372,32.548
36.273,32.725
36.174,32.943
36.076,33.2
35.979,33.499
35.884,33.837
35.792,34.211
35.704,34.616
35.62,35.048
35.542,35.499
35.471,35.966
35.407,36.442
35.351,36.92
35.305,37.395
35.268,37.862
35.24,38.315
35.22,38.748
35.207,39.156
35.201,39.536
35.202,39.884
35.209,40.197
35.221,40.473
35.239,40.71
35.26,40.907
35.285,41.061
35.311,41.174
35.341,41.246
35.372,41.277
35.405,41.27
35.438,41.225
35.47,41.147
35.502,41.037
35.532,40.899
35.559,40.736
35.583,40.554
35.602,40.356
35.616,40.146
35.625,39.927
35.626,39.705
35.62,39.48
35.606,39.255
35.586,39.031
35.558,38.81
35.525,38.591
35.487,38.376
35.442,38.165
35.392,37.958
35.337,37.756
35.28,37.559
35.222,37.367
35.162,37.179
35.103,36.996
35.047,36.817
34.994,36.64
34.942,36.467
34.891,36.298
34.84,36.132
34.787,35.971
34.733,35.815
34.677,35.665
34.617,35.522
34.555,35.389
34.49,35.267
34.423,35.158
34.354,35.064
34.285,34.985
34.217,34.923
34.151,34.878
34.087,34.848
34.025,34.834
33.966,34.835
33.91,34.851
33.858,34.882
33.809,34.927
33.763,34.985
33.72,35.056
33.679,35.137
33.641,35.227
33.606,35.322
33.574,35.42
33.545,35.519
33.519,35.618
33.494,35.713
33.47,35.803
33.447,35.887
33.422,35.963
33.396,36.033
33.369,36.094
33.342,36.144
33.316,36.184
33.291,36.213
33.269,36.231
33.248,36.238
33.23,36.234
33.215,36.222
33.203,36.2
33.193,36.17
33.186,36.134
33.181,36.089
33.177,36.036
33.174,35.974
33.17,35.904
33.164,35.827
33.158,35.743
33.15,35.651
33.142,35.554
33.132,35.452
33.122,35.346
33.11,35.238
33.098,35.13
33.084,35.023
33.071,34.917
33.058,34.814
33.047,34.714
33.036,34.618
33.024,34.525
33.01,34.435
32.994,34.348
32.975,34.263
32.955,34.181
32.934,34.104
32.913,34.029
32.892,33.958
32.871,33.888
32.85,33.819
32.831,33.752
32.814,33.686
32.803,33.622
32.8,33.559
32.808,33.498
32.828,33.439
32.863,33.382
32.917,33.328
32.992,33.276
33.091,33.227
33.217,33.18
33.37,33.135
33.551,33.094
33.758,33.057
33.99,33.023
34.244,32.992
34.517,32.964
34.806,32.936
35.107,32.91
35.418,32.885
35.735,32.862
36.054,32.84
36.373,32.819
36.688,32.8
36.997,32.782
37.298,32.764
37.59,32.747
37.868,32.728
38.132,32.708
38.377,32.687
38.603,32.664
38.806,32.639
38.984,32.612
39.135,32.584
39.257,32.555
39.351,32.524
39.416,32.492
39.454,32.46
39.465,32.429
39.452,32.398
39.418,32.369
39.362,32.341
39.286,32.315
39.193,32.292
39.084,32.271
38.961,32.253
38.827,32.239
38.684,32.23
38.535,32.227
38.383,32.231
38.23,32.246
38.078,32.275
37.93,32.322
37.785,32.392
37.645,32.488
37.51,32.614
37.38,32.775
37.256,32.973
37.138,33.211
37.023,33.49
36.913,33.807
36.805,34.159
36.7,34.543
36.598,34.955
36.497,35.389
36.399,35.839
36.304,36.299
36.21,36.764
36.119,37.228
36.029,37.686
35.942,38.132
35.857,38.561
35.775,38.968
35.696,39.35
35.621,39.702
35.55,40.022
35.484,40.307
35.424,40.553
35.37,40.76
35.324,40.924
35.287,41.046
35.259,41.126
35.24,41.164
35.229,41.162
35.227,41.122
35.235,41.048
35.25,40.943
35.274,40.81
35.303,40.652
35.338,40.472
35.375,40.274
35.414,40.064
35.452,39.844
35.488,39.618
35.522,39.39
35.553,39.16
35.582,38.931
35.606,38.705
35.627,38.48
35.645,38.258
35.657,38.04
35.665,37.825
35.669,37.613
35.668,37.406
35.663,37.204
35.653,37.007
35.638,36.814
35.617,36.627
35.592,36.444
35.561,36.266
35.524,36.092
35.483,35.922
35.437,35.759
35.387,35.602
35.331,35.452
35.272,35.312
35.209,35.182
35.145,35.065
35.08,34.962
35.014,34.876
34.95,34.806
34.886,34.754
34.822,34.72
34.758,34.704
34.695,34.705
34.631,34.722
34.567,34.754
34.502,34.801
34.438,34.86
34.373,34.932
34.31,35.015
34.248,35.106
34.188,35.204
34.131,35.308
34.076,35.415
34.023,35.522
33.974,35.627
33.927,35.728
33.884,35.825
33.843,35.915
33.805,35.998
33.77,36.072
33.736,36.136
33.704,36.19
33.674,36.233
33.645,36.264
33.617,36.283
33.589,36.29
33.562,36.287
33.535,36.272
33.509,36.248
33.482,36.213
33.457,36.17
33.433,36.119
33.411,36.058
33.392,35.99
33.374,35.913
33.358,35.828
33.343,35.736
33.328,35.638
33.314,35.534
33.302,35.426
33.29,35.316
33.28,35.203
33.27,35.091
33.26,34.979
33.251,34.87
33.241,34.763
33.23,34.66
33.22,34.56
33.211,34.464
33.204,34.371
33.197,34.282
33.192,34.196
33.188,34.113
33.184,34.032
33.181,33.954
33.177,33.877
33.172,33.802
33.164,33.728
33.156,33.653
33.145,33.579
33.133,33.504
33.118,33.432
33.103,33.363
33.085,33.297
33.066,33.236
33.046,33.178
33.026,33.126
33.006,33.079
32.986,33.037
32.968,32.998
32.953,32.962
32.942,32.926
32.937,32.89
32.939,32.855
32.951,32.82
32.975,32.786
33.013,32.753
33.07,32.721
33.146,32.69
33.246,32.662
33.371,32.637
33.524,32.615
33.705,32.595
33.915,32.577
34.151,32.562
34.411,32.548
34.692,32.536
34.991,32.526
35.304,32.516
35.626,32.507
35.953,32.497
36.28,32.486
36.603,32.474
36.917,32.46
37.22,32.444
37.511,32.425
37.786,32.404
38.044,32.38
38.283,32.354
38.503,32.325
38.702,32.294
38.877,32.262
39.029,32.231
39.154,32.2
39.254,32.172
39.327,32.147
39.373,32.124
39.393,32.106
39.388,32.093
39.358,32.085
39.306,32.086
39.231,32.097
39.139,32.121
39.03,32.164
38.909,32.229
38.777,32.321
38.638,32.444
38.493,32.605
38.346,32.806
38.199,33.05
38.052,33.337
37.908,33.666
37.767,34.032
37.632,34.433
37.501,34.861
37.375,35.31
37.254,35.773
37.136,36.244
37.023,36.715
36.912,37.182
36.805,37.638
36.701,38.074
36.599,38.486
36.499,38.87
36.402,39.224
36.307,39.545
36.215,39.832
36.125,40.084
36.038,40.299
35.953,40.477
35.872,40.617
35.794,40.72
35.719,40.784
35.647,40.811
35.58,40.803
35.517,40.761
35.46,40.689
35.41,40.586
35.368,40.457
35.334,40.302
35.307,40.126
35.289,39.932
35.277,39.724
35.274,39.507
35.278,39.282
35.291,39.053
35.31,38.821
35.335,38.589
35.364,38.359
35.396,38.132
35.431,37.91
35.468,37.692
35.505,37.48
35.543,37.273
35.58,37.071
35.615,36.877
35.646,36.689
35.673,36.508
35.695,36.332
35.711,36.162
35.72,35.996
35.724,35.834
35.721,35.678
35.712,35.528
35.697,35.383
35.676,35.244
35.65,35.113
35.618,34.991
35.582,34.881
35.542,34.783
35.497,34.7
35.449,34.632
35.399,34.581
35.347,34.548
35.292,34.532
35.236,34.534
35.178,34.552
35.119,34.586
35.059,34.636
34.998,34.699
34.936,34.774
34.873,34.861
34.81,34.958
34.746,35.061
34.683,35.171
34.618,35.283
34.554,35.395
34.491,35.505
34.429,35.608
34.368,35.705
34.308,35.792
34.251,35.868
34.194,35.933
34.139,35.986
34.086,36.027
34.034,36.055
33.985,36.071
33.938,36.075
33.893,36.068
33.851,36.048
33.812,36.019
33.776,35.98
33.743,35.933
33.711,35.878
33.682,35.816
33.654,35.747
33.628,35.673
33.604,35.594
33.58,35.511
33.557,35.422
33.532,35.331
33.507,35.236
33.48,35.138
33.454,35.038
33.428,34.937
33.403,34.836
33.38,34.734
33.358,34.632
33.338,34.529
33.318,34.425
33.301,34.322
33.287,34.219
33.274,34.118
33.264,34.019
33.256,33.921
33.249,33.826
33.243,33.734
33.237,33.647
33.231,33.563
33.224,33.483
33.217,33.407
33.209,33.335
33.2,33.266
33.19,33.2
33.18,33.139
33.169,33.08
33.158,33.024
33.147,32.97
33.136,32.918
33.123,32.869
33.105,32.823
33.076,32.779
33.037,32.738
32.99,32.7
32.939,32.665
32.887,32.634
32.839,32.606
32.797,32.582
32.764,32.561
32.743,32.543
32.733,32.527
32.736,32.513
32.752,32.5
32.78,32.487
32.821,32.473
32.875,32.457
32.946,32.44
33.033,32.422
33.14,32.402
33.268,32.381
33.418,32.36
33.593,32.337
33.792,32.313
34.016,32.29
34.264,32.267
34.533,32.244
34.821,32.221
35.123,32.198
35.436,32.176
35.755,32.154
36.076,32.133
36.396,32.112
36.709,32.092
37.013,32.072
37.305,32.052
37.582,32.035
37.844,32.019
38.089,32.005
38.316,31.993
38.523,31.985
38.71,31.98
38.873,31.982
39.012,31.991
39.126,32.01
39.214,32.043
39.277,32.093
39.315,32.164
39.328,32.262
39.319,32.39
39.289,32.554
39.239,32.756
39.171,32.998
39.087,33.283
38.988,33.608
38.878,33.969
38.757,34.362
38.628,34.781
38.494,35.219
38.355,35.67
38.213,36.127
38.071,36.584
37.929,37.036
37.789,37.478
37.652,37.904
37.52,38.311
37.391,38.693
37.266,39.049
37.144,39.376
37.026,39.67
36.912,39.928
36.8,40.149
36.692,40.331
36.586,40.471
36.483,40.57
36.383,40.629
36.285,40.648
36.19,40.63
36.097,40.576
36.007,40.49
35.92,40.375
35.835,40.234
35.754,40.071
35.677,39.889
35.604,39.691
35.536,39.483
35.474,39.265
35.418,39.04
35.368,38.811
35.326,38.579
35.29,38.346
35.262,38.114
35.242,37.884
35.23,37.657
35.226,37.433
35.231,37.214
35.244,37
35.264,36.791
35.29,36.587
35.32,36.388
35.355,36.193
35.392,36.003
35.433,35.818
35.475,35.637
35.519,35.46
35.563,35.29
35.607,35.126
35.648,34.97
35.685,34.824
35.718,34.69
35.746,34.569
35.767,34.463
35.781,34.373
35.788,34.3
35.787,34.245
35.778,34.208
35.76,34.191
35.734,34.193
35.701,34.215
35.661,34.256
35.615,34.314
35.563,34.389
35.508,34.477
35.45,34.578
35.39,34.689
35.329,34.808
35.268,34.933
35.206,35.062
35.145,35.195
35.083,35.332
35.021,35.478
34.958,35.629
34.894,35.782
34.829,35.931
34.763,36.073
34.696,36.201
34.629,36.311
34.564,36.401
34.5,36.468
34.439,36.513
34.38,36.534
34.323,36.535
34.267,36.515
34.213,36.478
34.161,36.426
34.111,36.362
34.064,36.288
34.019,36.205
33.976,36.116
33.934,36.021
33.894,35.923
33.856,35.82
33.82,35.715
33.785,35.607
33.752,35.497
33.72,35.386
33.69,35.275
33.661,35.165
33.633,35.055
33.607,34.946
33.583,34.839
33.561,34.732
33.54,34.627
33.52,34.525
33.501,34.425
33.481,34.329
33.46,34.236
33.438,34.147
33.416,34.061
33.395,33.979
33.375,33.9
33.356,33.825
33.341,33.753
33.33,33.684
33.322,33.618
33.317,33.556
33.314,33.498
33.313,33.441
33.312,33.387
33.31,33.335
33.306,33.285
33.301,33.238
33.293,33.192
33.283,33.148
33.271,33.107
33.255,33.066
33.239,33.028
33.22,32.991
33.2,32.956
33.179,32.923
33.156,32.891
33.133,32.861
33.111,32.833
33.089,32.807
33.072,32.784
33.058,32.764
33.048,32.745
33.042,32.729
33.039,32.715
33.038,32.702
33.04,32.691
33.045,32.68
33.053,32.67
33.067,32.658
33.088,32.646
33.119,32.631
33.163,32.615
33.224,32.596
33.305,32.574
33.412,32.548
33.545,32.521
33.708,32.492
33.9,32.461
34.12,32.431
34.366,32.4
34.636,32.372
34.926,32.346
35.232,32.324
35.55,32.308
35.874,32.299
36.2,32.3
36.524,32.316
36.842,32.349
37.149,32.403
37.444,32.485
37.723,32.596
37.984,32.742
38.226,32.924
38.447,33.145
38.647,33.403
38.823,33.698
38.973,34.026
39.098,34.383
39.196,34.765
39.267,35.168
39.312,35.585
39.331,36.013
39.326,36.445
39.298,36.877
39.249,37.302
39.181,37.717
39.097,38.118
38.997,38.5
38.885,38.859
38.762,39.192
38.63,39.495
38.49,39.765
38.346,40
38.198,40.198
38.049,40.358
37.901,40.48
37.755,40.565
37.612,40.614
37.473,40.627
37.34,40.604
37.212,40.547
37.091,40.457
36.975,40.338
36.864,40.192
36.757,40.023
36.652,39.836
36.55,39.635
36.448,39.423
36.348,39.204
36.247,38.981
36.146,38.757
36.044,38.534
35.943,38.314
35.841,38.097
35.742,37.883
35.645,37.674
35.552,37.469
35.464,37.268
35.383,37.07
35.309,36.876
35.242,36.684
35.185,36.493
35.136,36.305
35.097,36.119
35.068,35.937
35.049,35.758
35.04,35.585
35.041,35.418
35.052,35.257
35.071,35.105
35.099,34.964
35.133,34.834
35.172,34.717
35.216,34.614
35.261,34.527
35.306,34.456
35.35,34.402
35.393,34.367
35.432,34.351
35.469,34.354
35.501,34.376
35.53,34.417
35.555,34.476
35.578,34.552
35.597,34.642
35.611,34.745
35.62,34.858
35.625,34.977
35.625,35.101
35.62,35.225
35.61,35.349
35.595,35.469
35.575,35.583
35.549,35.69
35.52,35.788
35.488,35.877
35.452,35.956
35.413,36.024
35.37,36.08
35.323,36.123
35.271,36.154
35.216,36.171
35.156,36.175
35.093,36.167
35.025,36.147
34.954,36.115
34.88,36.072
34.805,36.019
34.728,35.959
34.651,35.892
34.575,35.82
34.5,35.742
34.428,35.661
34.357,35.577
34.29,35.49
34.226,35.4
34.165,35.308
34.106,35.215
34.051,35.119
33.998,35.022
33.948,34.924
33.899,34.824
33.853,34.723
33.81,34.622
33.77,34.521
33.732,34.421
33.698,34.32
33.665,34.22
33.635,34.122
33.605,34.027
33.577,33.934
33.551,33.844
33.526,33.759
33.503,33.678
33.481,33.602
33.461,33.532
33.443,33.466
33.425,33.406
33.407,33.35
33.391,33.298
33.375,33.248
33.362,33.2
33.35,33.153
33.34,33.107
33.331,33.062
33.323,33.018
33.315,32.973
33.306,32.929
33.296,32.887
33.285,32.848
33.274,32.811
33.262,32.777
33.25,32.747
33.237,32.721
33.224,32.699
33.211,32.68
33.198,32.663
33.185,32.649
33.172,32.635
33.159,32.623
33.147,32.611
33.136,32.6
33.124,32.588
33.111,32.574
33.098,32.558
33.083,32.54
33.068,32.519
33.052,32.496
33.036,32.471
33.02,32.445
33.004,32.417
32.988,32.39
32.973,32.363
32.961,32.337
32.955,32.312
32.958,32.288
32.97,32.265
32.994,32.245
33.034,32.227
33.091,32.213
33.168,32.204
33.268,32.202
33.393,32.211
33.546,32.233
33.725,32.272
33.931,32.333
34.161,32.42
34.414,32.539
34.687,32.695
34.976,32.892
35.278,33.132
35.587,33.416
35.898,33.743
36.208,34.11
36.511,34.512
36.805,34.943
37.088,35.398
37.355,35.871
37.606,36.356
37.838,36.845
38.051,37.333
38.244,37.813
38.416,38.279
38.568,38.727
38.699,39.151
38.81,39.548
38.9,39.913
38.969,40.243
39.018,40.534
39.046,40.785
39.056,40.993
39.046,41.158
39.019,41.281
38.974,41.361
38.914,41.4
38.84,41.399
38.753,41.362
38.656,41.293
38.548,41.193
38.432,41.068
38.309,40.919
38.181,40.751
38.049,40.566
37.916,40.369
37.783,40.16
37.649,39.943
37.518,39.719
37.389,39.493
37.262,39.264
37.14,39.035
37.02,38.807
36.905,38.581
36.794,38.358
36.686,38.141
36.581,37.929
36.479,37.724
36.381,37.526
36.285,37.334
36.193,37.148
36.103,36.968
36.016,36.793
35.932,36.623
35.85,36.459
35.771,36.3
35.696,36.148
35.627,36.002
35.564,35.865
35.507,35.736
35.459,35.618
35.418,35.511
35.386,35.417
35.363,35.334
35.348,35.265
35.342,35.209
35.344,35.167
35.354,35.142
35.372,35.132
35.397,35.139
35.426,35.169
35.461,35.23
35.5,35.32
35.542,35.434
35.586,35.565
35.631,35.704
35.678,35.845
35.723,35.98
35.769,36.104
35.814,36.213
35.859,36.305
35.901,36.38
35.94,36.438
35.973,36.48
36,36.508
36.02,36.523
36.031,36.528
36.036,36.526
36.032,36.516
36.022,36.503
36.003,36.486
35.977,36.466
35.944,36.443
35.904,36.418
35.856,36.389
35.804,36.357
35.746,36.323
35.684,36.284
35.617,36.241
35.546,36.192
35.473,36.137
35.398,36.075
35.322,36.004
35.245,35.925
35.169,35.837
35.093,35.743
35.017,35.643
34.943,35.54
34.872,35.433
34.804,35.324
34.738,35.215
34.675,35.105
34.616,34.997
34.562,34.889
34.513,34.784
34.467,34.682
34.423,34.585
34.382,34.492
34.343,34.403
34.304,34.319
34.265,34.239
34.226,34.164
34.186,34.092
34.146,34.023
34.106,33.957
34.065,33.893
34.025,33.831
33.984,33.771
33.944,33.714
33.905,33.658
33.868,33.605
33.834,33.554
33.803,33.506
33.775,33.462
33.75,33.42
33.727,33.382
33.705,33.348
33.686,33.316
33.668,33.286
33.651,33.257
33.637,33.228
33.625,33.199
33.616,33.168
33.608,33.136
33.601,33.103
33.595,33.07
33.59,33.038
33.586,33.006
33.582,32.975
33.578,32.947
33.573,32.923
33.568,32.902
33.56,32.884
33.55,32.868
33.538,32.853
33.526,32.839
33.512,32.825
33.496,32.811
33.479,32.795
33.462,32.778
33.443,32.757
33.423,32.734
33.404,32.707
33.384,32.678
33.367,32.646
33.353,32.613
33.343,32.579
33.34,32.545
33.345,32.516
33.36,32.492
33.387,32.477
33.43,32.473
33.49,32.482
33.572,32.509
33.677,32.557
33.808,32.63
33.964,32.732
34.149,32.867
34.361,33.037
34.598,33.245
34.857,33.492
35.135,33.778
35.428,34.099
35.731,34.454
36.041,34.838
36.352,35.246
36.661,35.675
36.965,36.12
37.26,36.576
37.544,37.038
37.813,37.503
38.066,37.965
38.3,38.419
38.515,38.861
38.709,39.284
38.881,39.684
39.03,40.056
39.157,40.393
39.262,40.691
39.344,40.947
39.403,41.157
39.439,41.32
39.454,41.437
39.447,41.509
39.419,41.538
39.373,41.525
39.31,41.474
39.232,41.389
39.139,41.273
39.033,41.131
38.917,40.966
38.791,40.784
38.659,40.586
38.524,40.377
38.387,40.161
38.25,39.939
38.117,39.714
37.987,39.488
37.862,39.264
37.742,39.042
37.625,38.826
37.512,38.616
37.403,38.413
37.297,38.217
37.192,38.025
37.088,37.836
36.986,37.648
36.885,37.462
36.785,37.279
36.686,37.1
36.588,36.925
36.493,36.756
36.4,36.595
36.309,36.443
36.221,36.3
36.136,36.166
36.054,36.041
35.978,35.927
35.906,35.823
35.839,35.731
35.78,35.651
35.729,35.583
35.687,35.526
35.655,35.483
35.633,35.451
35.62,35.432
35.615,35.425
35.619,35.43
35.629,35.447
35.647,35.475
35.67,35.513
35.699,35.561
35.732,35.617
35.767,35.682
35.805,35.754
35.843,35.829
35.879,35.908
35.915,35.987
35.949,36.067
35.981,36.146
36.011,36.222
36.037,36.294
36.059,36.36
36.076,36.42
36.088,36.472
36.095,36.515
36.097,36.55
36.094,36.576
36.085,36.592
36.069,36.597
36.047,36.592
36.019,36.578
35.986,36.556
35.948,36.525
35.904,36.485
35.857,36.436
35.804,36.379
35.748,36.315
35.689,36.244
35.628,36.167
35.566,36.086
35.504,36
35.441,35.91
35.378,35.817
35.315,35.719
35.251,35.618
35.187,35.514
35.123,35.403
35.06,35.287
34.997,35.167
34.935,35.046
34.872,34.927
34.81,34.812
34.749,34.704
34.691,34.602
34.634,34.509
34.579,34.425
34.526,34.349
34.476,34.281
34.429,34.219
34.385,34.163
34.344,34.112
34.306,34.065
34.27,34.022
34.238,33.98
34.21,33.938
34.185,33.897
34.163,33.854
34.143,33.809
34.122,33.762
34.102,33.712
34.082,33.662
34.06,33.611
34.038,33.561
34.014,33.513
33.989,33.466
33.963,33.422
33.937,33.381
33.911,33.342
33.886,33.306
33.862,33.274
33.839,33.244
33.818,33.218
33.798,33.195
33.779,33.174
33.76,33.154
33.742,33.135
33.724,33.116
33.707,33.098
33.689,33.08
33.671,33.062
33.652,33.042
33.632,33.021
33.613,33
33.593,32.979
33.574,32.958
33.556,32.937
33.536,32.916
33.514,32.893
33.491,32.869
33.466,32.843
33.441,32.816
33.416,32.787
33.393,32.759
33.372,32.731
33.354,32.706
33.342,32.686
33.335,32.672
33.335,32.67
33.344,32.682
33.364,32.713
33.397,32.769
33.446,32.855
33.513,32.976
33.602,33.135
33.713,33.333
33.85,33.571
34.013,33.849
34.202,34.162
34.418,34.507
34.657,34.881
34.919,35.278
35.201,35.693
35.498,36.123
35.807,36.563
36.124,37.009
36.446,37.456
36.769,37.899
37.089,38.334
37.402,38.755
37.706,39.157
37.998,39.534
38.273,39.881
38.529,40.194
38.764,40.472
38.974,40.709
39.159,40.906
39.316,41.06
39.446,41.171
39.55,41.239
39.627,41.268
39.68,41.259
39.709,41.215
39.717,41.141
39.704,41.039
39.671,40.913
39.621,40.766
39.555,40.602
39.476,40.423
39.385,40.231
39.286,40.028
39.179,39.819
39.065,39.605
38.947,39.389
38.823,39.173
38.696,38.959
38.565,38.749
38.433,38.545
38.3,38.346
38.168,38.153
38.039,37.967
37.914,37.787
37.792,37.615
37.674,37.449
37.561,37.289
37.452,37.133
37.347,36.981
37.244,36.834
37.145,36.692
37.048,36.553
36.953,36.419
36.859,36.289
36.765,36.166
36.671,36.05
36.578,35.941
36.486,35.84
36.396,35.747
36.308,35.665
36.223,35.594
36.143,35.534
36.068,35.487
36,35.452
35.94,35.431
35.889,35.423
35.847,35.431
35.814,35.453
35.79,35.489
35.775,35.538
35.77,35.599
35.773,35.67
35.783,35.748
35.8,35.833
35.821,35.921
35.848,36.011
35.877,36.101
35.909,36.189
35.942,36.274
35.976,36.354
36.011,36.429
36.046,36.496
36.079,36.554
36.109,36.601
36.137,36.637
36.162,36.662
36.183,36.675
36.199,36.677
36.209,36.669
36.212,36.65
36.209,36.621
36.198,36.582
36.181,36.533
36.157,36.476
36.127,36.412
36.091,36.341
36.049,36.263
36.001,36.178
35.949,36.088
35.892,35.994
35.832,35.895
35.769,35.794
35.704,35.69
35.636,35.585
35.568,35.478
35.498,35.372
35.429,35.265
35.363,35.159
35.298,35.054
35.237,34.949
35.178,34.847
35.121,34.747
35.066,34.65
35.011,34.556
34.955,34.466
34.9,34.38
34.844,34.298
34.786,34.22
34.727,34.146
34.667,34.076
34.607,34.011
34.548,33.951
34.491,33.896
34.438,33.847
34.389,33.803
34.343,33.765
34.302,33.731
34.265,33.7
34.232,33.672
34.202,33.644
34.174,33.616
34.148,33.588
34.122,33.559
34.097,33.529
34.071,33.498
34.046,33.464
34.02,33.429
33.995,33.391
33.97,33.352
33.946,33.311
33.922,33.271
33.901,33.231
33.881,33.193
33.864,33.157
33.847,33.125
33.832,33.095
33.819,33.068
33.806,33.044
33.795,33.021
33.784,33
33.775,32.981
33.766,32.961
33.755,32.942
33.743,32.921
33.728,32.9
33.711,32.878
33.692,32.854
33.67,32.829
33.646,32.803
33.621,32.777
33.593,32.75
33.564,32.724
33.532,32.698
33.498,32.675
33.465,32.655
33.433,32.642
33.404,32.636
33.378,32.641
33.357,32.66
33.341,32.696
33.333,32.754
33.332,32.837
33.341,32.951
33.359,33.099
33.39,33.285
33.436,33.509
33.5,33.77
33.582,34.067
33.687,34.395
33.815,34.744
33.968,35.108
34.146,35.482
34.351,35.866
34.581,36.258
34.835,36.66
35.109,37.07
35.399,37.485
35.703,37.904
36.015,38.321
36.333,38.732
36.651,39.128
36.966,39.505
37.275,39.856
37.573,40.175
37.86,40.458
38.132,40.701
38.387,40.902
38.623,41.056
38.838,41.164
39.03,41.226
39.199,41.244
39.343,41.221
39.462,41.159
39.557,41.063
39.627,40.938
39.673,40.788
39.695,40.618
39.694,40.43
39.673,40.229
39.632,40.018
39.573,39.802
39.497,39.582
39.406,39.36
39.303,39.14
39.19,38.922
39.069,38.708
38.943,38.5
38.812,38.299
38.679,38.106
38.545,37.92
38.412,37.741
38.281,37.568
38.153,37.4
38.03,37.235
37.91,37.073
37.796,36.915
37.685,36.759
37.577,36.607
37.473,36.46
37.371,36.319
37.273,36.184
37.176,36.056
37.08,35.937
36.985,35.825
36.889,35.723
36.793,35.632
36.695,35.553
36.597,35.487
36.499,35.434
36.403,35.395
36.309,35.371
36.219,35.361
36.135,35.366
36.058,35.386
35.989,35.42
35.927,35.467
35.874,35.524
35.831,35.59
35.796,35.665
35.771,35.746
35.755,35.831
35.747,35.92
35.748,36.01
35.756,36.098
35.77,36.182
35.788,36.261
35.811,36.334
35.836,36.399
35.865,36.456
35.895,36.503
35.926,36.54
35.958,36.567
35.989,36.584
36.019,36.592
36.047,36.591
36.074,36.58
36.097,36.561
36.117,36.532
36.133,36.495
36.144,36.451
36.151,36.398
36.153,36.338
36.149,36.269
36.14,36.19
36.124,36.102
36.103,36.007
36.075,35.906
36.042,35.802
36.003,35.694
35.96,35.584
35.912,35.474
35.861,35.363
35.805,35.254
35.745,35.146
35.68,35.041
35.612,34.937
35.542,34.837
35.469,34.74
35.395,34.646
35.32,34.557
35.245,34.471
35.171,34.388
35.098,34.31
35.027,34.235
34.958,34.165
34.89,34.099
34.824,34.037
34.76,33.978
34.699,33.923
34.641,33.871
34.586,33.822
34.532,33.776
34.478,33.731
34.426,33.688
34.375,33.647
34.327,33.607
34.28,33.568
34.238,33.53
34.199,33.492
34.164,33.455
34.133,33.419
34.105,33.385
34.081,33.352
34.061,33.32
34.042,33.29
34.025,33.262
34.008,33.236
33.992,33.212
33.974,33.19
33.954,33.169
33.933,33.151
33.911,33.134
33.889,33.118
33.866,33.102
33.843,33.085
33.82,33.068
33.798,33.05
33.776,33.03
33.755,33.008
33.735,32.984
33.717,32.96
33.699,32.934
33.682,32.908
33.663,32.881
33.645,32.853
33.626,32.824
33.607,32.794
33.588,32.763
33.57,32.732
33.551,32.702
33.532,32.672
33.513,32.644
33.493,32.618
33.473,32.596
33.453,32.578
33.433,32.564
33.414,32.557
33.396,32.559
33.377,32.571
33.358,32.599
33.339,32.647
33.321,32.72
33.304,32.82
33.29,32.953
33.282,33.12
33.278,33.325
33.28,33.569
33.289,33.85
33.307,34.166
33.337,34.515
33.38,34.892
33.441,35.293
33.522,35.714
33.625,36.15
33.752,36.597
33.905,37.049
34.084,37.5
34.291,37.942
34.523,38.368
34.78,38.775
35.057,39.156
35.352,39.51
35.661,39.834
35.978,40.124
36.301,40.379
36.625,40.595
36.947,40.771
37.264,40.909
37.57,41.007
37.864,41.067
38.142,41.09
38.402,41.078
38.64,41.032
38.857,40.956
39.05,40.851
39.216,40.72
39.356,40.567
39.468,40.395
39.553,40.208
39.612,40.008
39.645,39.798
39.655,39.582
39.641,39.362
39.607,39.142
39.554,38.922
39.484,38.706
39.4,38.495
39.304,38.289
39.199,38.09
39.086,37.899
38.967,37.714
38.844,37.536
38.718,37.363
38.59,37.195
38.463,37.032
38.337,36.873
38.213,36.718
38.091,36.567
37.972,36.421
37.857,36.28
37.744,36.145
37.634,36.016
37.526,35.894
37.421,35.781
37.317,35.676
37.213,35.58
37.11,35.495
37.008,35.423
36.907,35.365
36.806,35.32
36.707,35.291
36.609,35.277
36.515,35.278
36.424,35.294
36.338,35.326
36.258,35.372
36.185,35.431
36.118,35.499
36.056,35.576
36.002,35.658
35.957,35.743
35.919,35.831
35.89,35.919
35.869,36.006
35.854,36.091
35.846,36.173
35.844,36.25
35.849,36.321
35.861,36.384
35.878,36.44
35.9,36.488
35.924,36.528
35.951,36.558
35.979,36.578
36.008,36.587
36.036,36.585
36.064,36.571
36.091,36.546
36.115,36.51
36.136,36.464
36.153,36.409
36.166,36.345
36.176,36.273
36.182,36.195
36.183,36.112
36.18,36.023
36.172,35.929
36.158,35.828
36.139,35.723
36.114,35.613
36.085,35.495
36.05,35.365
36.01,35.225
35.965,35.079
35.914,34.93
35.859,34.782
35.8,34.64
35.738,34.508
35.674,34.388
35.609,34.281
35.542,34.189
35.472,34.111
35.401,34.047
35.329,33.995
35.257,33.954
35.184,33.922
35.112,33.897
35.041,33.877
34.971,33.858
34.903,33.841
34.834,33.823
34.767,33.802
34.701,33.778
34.637,33.75
34.575,33.719
34.516,33.684
34.459,33.646
34.405,33.606
34.355,33.564
34.307,33.522
34.264,33.483
34.224,33.445
34.187,33.411
34.154,33.38
34.122,33.352
34.092,33.326
34.062,33.301
34.033,33.279
34.005,33.256
33.977,33.234
33.951,33.212
33.926,33.19
33.903,33.169
33.881,33.148
33.86,33.128
33.839,33.108
33.821,33.087
33.804,33.068
33.79,33.049
33.777,33.032
33.766,33.015
33.757,32.998
33.747,32.981
33.738,32.964
33.728,32.948
33.717,32.931
33.706,32.912
33.694,32.892
33.68,32.871
33.665,32.847
33.648,32.825
33.631,32.81
33.612,32.804
33.592,32.806
33.573,32.813
33.555,32.821
33.538,32.827
33.523,32.827
33.508,32.821
33.495,32.808
33.481,32.787
33.467,32.759
33.452,32.727
33.436,32.695
33.417,32.665
33.396,32.644
33.371,32.637
33.344,32.649
33.315,32.687
33.286,32.757
33.258,32.864
33.23,33.013
33.204,33.207
33.18,33.445
33.159,33.728
33.141,34.053
33.126,34.416
33.116,34.814
33.113,35.24
33.117,35.688
33.132,36.152
33.159,36.624
33.2,37.101
33.258,37.574
33.336,38.04
33.436,38.493
33.562,38.928
33.715,39.338
33.895,39.717
34.101,40.062
34.332,40.369
34.587,40.634
34.863,40.858
35.158,41.037
35.469,41.173
35.792,41.266
36.122,41.317
36.456,41.327
36.791,41.298
37.121,41.235
37.444,41.14
37.757,41.017
38.055,40.869
38.336,40.702
38.596,40.517
38.835,40.32
39.05,40.112
39.24,39.897
39.403,39.677
39.538,39.457
39.645,39.237
39.724,39.02
39.776,38.809
39.803,38.613
39.805,38.438
39.785,38.283
39.745,38.146
39.685,38.021
39.608,37.901
39.518,37.783
39.416,37.66
39.305,37.527
39.186,37.384
39.061,37.228
38.931,37.06
38.798,36.883
38.664,36.698
38.531,36.51
38.4,36.322
38.271,36.139
38.145,35.966
38.022,35.804
37.903,35.659
37.788,35.531
37.678,35.423
37.572,35.336
37.47,35.272
37.37,35.23
37.271,35.209
37.174,35.209
37.079,35.228
36.985,35.263
36.894,35.315
36.804,35.379
36.717,35.453
36.631,35.535
36.549,35.622
36.469,35.712
36.394,35.805
36.324,35.897
36.259,35.988
36.2,36.076
36.147,36.159
36.098,36.238
36.056,36.311
36.019,36.377
35.989,36.436
35.965,36.487
35.947,36.529
35.935,36.562
35.929,36.584
35.929,36.596
35.934,36.599
35.946,36.592
35.962,36.574
35.982,36.546
36.005,36.508
36.03,36.46
36.057,36.404
36.084,36.339
36.111,36.266
36.138,36.185
36.163,36.098
36.185,36.003
36.205,35.902
36.221,35.796
36.234,35.686
36.243,35.572
36.248,35.456
36.248,35.338
36.242,35.22
36.229,35.104
36.209,34.99
36.182,34.878
36.147,34.769
36.105,34.663
36.057,34.56
36.002,34.462
35.943,34.367
35.88,34.278
35.813,34.193
35.744,34.113
35.675,34.037
35.605,33.967
35.535,33.902
35.465,33.841
35.394,33.784
35.324,33.732
35.254,33.683
35.183,33.638
35.113,33.596
35.044,33.556
34.975,33.52
34.907,33.486
34.839,33.454
34.771,33.423
34.704,33.393
34.639,33.361
34.576,33.329
34.517,33.295
34.462,33.261
34.411,33.226
34.364,33.191
34.32,33.158
34.279,33.128
34.241,33.1
34.207,33.076
34.175,33.054
34.145,33.037
34.115,33.023
34.086,33.013
34.056,33.005
34.026,32.999
33.997,32.992
33.967,32.986
33.939,32.979
33.911,32.971
33.883,32.962
33.855,32.953
33.829,32.944
33.802,32.935
33.777,32.927
33.754,32.919
33.732,32.909
33.712,32.897
33.693,32.882
33.675,32.864
33.656,32.841
33.638,32.815
33.621,32.786
33.606,32.753
33.592,32.719
33.579,32.683
33.567,32.645
33.556,32.607
33.544,32.568
33.532,32.529
33.521,32.493
33.511,32.461
33.501,32.435
33.49,32.418
33.478,32.41
33.464,32.416
33.45,32.439
33.435,32.481
33.419,32.549
33.403,32.644
33.386,32.77
33.37,32.931
33.353,33.13
33.336,33.367
33.317,33.644
33.298,33.957
33.279,34.305
33.26,34.683
33.24,35.086
33.221,35.511
33.201,35.952
33.182,36.404
33.163,36.862
33.146,37.32
33.131,37.773
33.119,38.215
33.111,38.64
33.107,39.043
33.108,39.419
33.116,39.764
33.132,40.074
33.159,40.346
33.199,40.575
33.257,40.76
33.334,40.902
33.434,41
33.561,41.056
33.718,41.071
33.905,41.049
34.122,40.992
34.367,40.904
34.638,40.79
34.932,40.652
35.244,40.494
35.569,40.322
35.904,40.138
36.244,39.945
36.586,39.745
36.923,39.54
37.253,39.333
37.572,39.125
37.878,38.917
38.167,38.711
38.438,38.507
38.688,38.309
38.917,38.115
39.121,37.926
39.3,37.744
39.452,37.566
39.576,37.393
39.672,37.224
39.742,37.058
39.785,36.895
39.804,36.734
39.799,36.576
39.773,36.422
39.729,36.272
39.669,36.128
39.595,35.991
39.509,35.862
39.412,35.742
39.305,35.631
39.189,35.532
39.068,35.444
38.943,35.367
38.815,35.304
38.686,35.255
38.557,35.22
38.428,35.2
38.3,35.194
38.175,35.203
38.053,35.226
37.934,35.263
37.82,35.31
37.709,35.367
37.602,35.432
37.497,35.502
37.396,35.577
37.297,35.656
37.2,35.736
37.105,35.818
37.011,35.901
36.918,35.982
36.826,36.062
36.736,36.137
36.648,36.207
36.563,36.27
36.482,36.325
36.404,36.371
36.33,36.407
36.26,36.433
36.197,36.447
36.139,36.449
36.089,36.441
36.046,36.421
36.009,36.391
35.979,36.351
35.954,36.3
35.936,36.24
35.925,36.169
35.92,36.089
35.922,36.001
35.929,35.907
35.94,35.808
35.955,35.704
35.973,35.596
35.993,35.486
36.016,35.376
36.041,35.265
36.067,35.154
36.092,35.044
36.117,34.934
36.141,34.826
36.164,34.72
36.185,34.617
36.203,34.517
36.216,34.421
36.225,34.327
36.227,34.238
36.223,34.152
36.211,34.069
36.191,33.991
36.162,33.917
36.125,33.846
36.081,33.779
36.029,33.715
35.971,33.655
35.908,33.597
35.841,33.543
35.773,33.49
35.703,33.439
35.633,33.39
35.563,33.343
35.492,33.298
35.421,33.257
35.35,33.219
35.279,33.184
35.209,33.153
35.139,33.124
35.07,33.097
35.001,33.072
34.934,33.047
34.866,33.024
34.8,33.002
34.735,32.982
34.671,32.963
34.61,32.945
34.552,32.927
34.495,32.91
34.44,32.894
34.386,32.88
34.333,32.866
34.282,32.852
34.233,32.837
34.188,32.82
34.146,32.803
34.107,32.785
34.069,32.766
34.033,32.746
33.998,32.726
33.963,32.705
33.929,32.685
33.896,32.665
33.864,32.645
33.834,32.626
33.806,32.605
33.779,32.583
33.753,32.559
33.728,32.532
33.705,32.503
33.684,32.471
33.664,32.437
33.645,32.402
33.626,32.368
33.607,32.336
33.588,32.307
33.57,32.282
33.554,32.262
33.539,32.249
33.527,32.245
33.516,32.252
33.507,32.275
33.499,32.318
33.49,32.384
33.482,32.478
33.473,32.605
33.464,32.768
33.455,32.969
33.443,33.209
33.43,33.488
33.415,33.803
33.398,34.151
33.379,34.528
33.359,34.93
33.338,35.352
33.316,35.79
33.293,36.237
33.269,36.689
33.245,37.14
33.22,37.584
33.196,38.016
33.172,38.43
33.149,38.821
33.127,39.184
33.105,39.515
33.085,39.811
33.067,40.071
33.049,40.293
33.034,40.476
33.019,40.62
33.006,40.727
32.996,40.795
32.988,40.827
32.985,40.823
32.989,40.785
33.001,40.717
33.025,40.621
33.063,40.5
33.119,40.357
33.197,40.194
33.3,40.014
33.43,39.821
33.589,39.617
33.776,39.406
33.992,39.19
34.235,38.97
34.503,38.749
34.794,38.529
35.103,38.312
35.428,38.1
35.763,37.892
36.105,37.691
36.447,37.496
36.788,37.308
37.121,37.127
37.444,36.951
37.754,36.781
38.046,36.616
38.318,36.456
38.568,36.299
38.794,36.146
38.995,35.996
39.169,35.85
39.316,35.709
39.435,35.575
39.528,35.447
39.593,35.328
39.634,35.219
39.65,35.123
39.643,35.041
39.614,34.975
39.566,34.924
39.502,34.891
39.425,34.875
39.338,34.876
39.241,34.893
39.136,34.926
39.025,34.974
38.908,35.036
38.786,35.11
38.662,35.19
38.535,35.269
38.407,35.346
38.279,35.42
38.152,35.492
38.027,35.562
37.905,35.631
37.786,35.701
37.671,35.772
37.559,35.844
37.45,35.917
37.343,35.99
37.238,36.062
37.135,36.131
37.034,36.195
36.935,36.251
36.836,36.299
36.739,36.336
36.641,36.361
36.544,36.372
36.448,36.369
36.354,36.351
36.264,36.318
36.178,36.271
36.097,36.21
36.021,36.137
35.953,36.053
35.892,35.958
35.841,35.854
35.797,35.742
35.762,35.625
35.735,35.504
35.716,35.38
35.704,35.254
35.699,35.126
35.7,34.998
35.707,34.871
35.72,34.746
35.738,34.624
35.762,34.507
35.789,34.393
35.819,34.286
35.853,34.186
35.889,34.093
35.926,34.007
35.963,33.928
35.999,33.856
36.031,33.789
36.058,33.728
36.08,33.671
36.097,33.617
36.108,33.566
36.112,33.517
36.111,33.47
36.103,33.425
36.088,33.382
36.066,33.342
36.039,33.304
36.01,33.268
35.986,33.234
35.967,33.202
35.952,33.172
35.937,33.144
35.919,33.114
35.895,33.083
35.861,33.05
35.817,33.017
35.763,32.984
35.699,32.952
35.623,32.922
35.539,32.895
35.446,32.871
35.346,32.85
35.242,32.832
35.135,32.816
35.029,32.802
34.923,32.79
34.82,32.78
34.721,32.772
34.625,32.766
34.535,32.762
34.451,32.758
34.374,32.753
34.304,32.749
34.241,32.743
34.185,32.736
34.135,32.726
34.09,32.712
34.05,32.693
34.014,32.671
33.98,32.643
33.948,32.612
33.916,32.578
33.883,32.541
33.85,32.503
33.817,32.466
33.785,32.431
33.753,32.398
33.724,32.369
33.696,32.344
33.669,32.324
33.644,32.311
33.62,32.308
33.598,32.315
33.578,32.337
33.56,32.375
33.544,32.435
33.529,32.519
33.516,32.633
33.504,32.78
33.492,32.963
33.48,33.183
33.469,33.442
33.458,33.738
33.447,34.069
33.436,34.433
33.425,34.826
33.415,35.243
33.404,35.68
33.392,36.129
33.38,36.587
33.366,37.048
33.352,37.506
33.336,37.957
33.318,38.394
33.3,38.812
33.281,39.205
33.26,39.566
33.239,39.893
33.216,40.182
33.192,40.431
33.167,40.639
33.142,40.806
33.116,40.932
33.09,41.016
33.065,41.061
33.041,41.068
33.018,41.04
32.997,40.978
32.978,40.887
32.963,40.77
32.95,40.628
32.941,40.467
32.935,40.289
32.933,40.097
32.935,39.895
32.944,39.686
32.96,39.471
32.986,39.252
33.027,39.032
33.085,38.812
33.163,38.594
33.264,38.379
33.392,38.168
33.546,37.963
33.73,37.762
33.943,37.568
34.184,37.38
34.451,37.199
34.741,37.024
35.05,36.855
35.372,36.691
35.706,36.532
36.045,36.378
36.385,36.227
36.724,36.08
37.055,35.939
37.376,35.803
37.683,35.675
37.973,35.555
38.243,35.445
38.491,35.345
38.716,35.259
38.914,35.187
39.087,35.13
39.233,35.09
39.353,35.068
39.448,35.062
39.518,35.073
39.563,35.098
39.584,35.136
39.583,35.187
39.56,35.248
39.518,35.318
39.458,35.396
39.382,35.48
39.292,35.569
39.191,35.662
39.08,35.757
38.96,35.85
38.834,35.942
38.704,36.031
38.572,36.115
38.439,36.194
38.306,36.265
38.176,36.328
38.05,36.382
37.928,36.428
37.809,36.464
37.692,36.489
37.579,36.503
37.469,36.506
37.362,36.497
37.257,36.474
37.156,36.438
37.056,36.389
36.956,36.328
36.858,36.256
36.761,36.175
36.665,36.084
36.571,35.987
36.478,35.883
36.386,35.775
36.297,35.664
36.209,35.549
36.125,35.431
36.045,35.312
35.97,35.192
35.902,35.072
35.84,34.954
35.786,34.837
35.74,34.725
35.702,34.617
35.672,34.514
35.651,34.417
35.639,34.324
35.636,34.238
35.64,34.155
35.652,34.076
35.67,34.001
35.694,33.929
35.722,33.859
35.755,33.793
35.79,33.728
35.827,33.666
35.865,33.604
35.905,33.544
35.944,33.485
35.982,33.429
36.017,33.375
36.049,33.323
36.076,33.274
36.098,33.228
36.115,33.185
36.125,33.146
36.129,33.112
36.126,33.08
36.117,33.051
36.102,33.024
36.082,33
36.056,32.978
36.025,32.958
35.988,32.941
35.944,32.926
35.895,32.913
35.84,32.902
35.78,32.892
35.715,32.883
35.646,32.874
35.573,32.866
35.498,32.857
35.419,32.847
35.338,32.836
35.257,32.823
35.175,32.807
35.094,32.789
35.014,32.769
34.934,32.747
34.855,32.723
34.778,32.697
34.702,32.67
34.628,32.641
34.557,32.613
34.488,32.585
34.422,32.556
34.358,32.528
34.296,32.5
34.237,32.472
34.182,32.446
34.131,32.42
34.083,32.394
34.039,32.368
33.997,32.343
33.957,32.32
33.919,32.3
33.883,32.287
33.849,32.282
33.818,32.289
33.789,32.311
33.762,32.353
33.737,32.422
33.714,32.522
33.693,32.658
33.673,32.833
33.653,33.048
33.634,33.305
33.614,33.603
33.593,33.94
33.573,34.311
33.552,34.712
33.533,35.137
33.514,35.581
33.496,36.038
33.479,36.501
33.464,36.966
33.45,37.429
33.438,37.884
33.427,38.327
33.419,38.753
33.411,39.156
33.404,39.531
33.396,39.875
33.387,40.184
33.378,40.457
33.369,40.69
33.358,40.881
33.347,41.03
33.335,41.137
33.323,41.202
33.309,41.227
33.293,41.214
33.276,41.167
33.258,41.088
33.238,40.982
33.217,40.85
33.196,40.697
33.174,40.525
33.153,40.338
33.132,40.139
33.112,39.93
33.092,39.714
33.073,39.493
33.054,39.27
33.035,39.046
33.016,38.824
32.998,38.605
32.982,38.392
32.967,38.187
32.956,37.989
32.95,37.799
32.951,37.617
32.961,37.442
32.982,37.275
33.016,37.115
33.066,36.96
33.138,36.809
33.233,36.662
33.357,36.517
33.51,36.374
33.694,36.234
33.91,36.098
34.157,35.967
34.431,35.843
34.728,35.727
35.044,35.62
35.373,35.525
35.713,35.44
36.057,35.366
36.402,35.306
36.744,35.259
37.077,35.227
37.398,35.21
37.706,35.208
37.996,35.221
38.268,35.248
38.519,35.288
38.746,35.339
38.949,35.401
39.127,35.471
39.278,35.549
39.403,35.632
39.501,35.718
39.573,35.806
39.619,35.893
39.642,35.977
39.641,36.056
39.62,36.128
39.579,36.194
39.522,36.252
39.449,36.301
39.361,36.341
39.261,36.372
39.15,36.393
39.03,36.404
38.904,36.406
38.772,36.397
38.636,36.377
38.497,36.346
38.358,36.305
38.221,36.255
38.086,36.196
37.954,36.129
37.827,36.054
37.705,35.972
37.588,35.883
37.476,35.788
37.369,35.688
37.267,35.584
37.168,35.477
37.072,35.367
36.979,35.255
36.888,35.142
36.798,35.028
36.708,34.915
36.617,34.803
36.527,34.694
36.435,34.586
36.344,34.482
36.254,34.383
36.167,34.289
36.083,34.2
36.006,34.115
35.935,34.033
35.873,33.956
35.819,33.881
35.774,33.809
35.738,33.74
35.712,33.674
35.694,33.61
35.685,33.549
35.683,33.491
35.688,33.436
35.699,33.384
35.715,33.334
35.737,33.286
35.765,33.241
35.798,33.198
35.834,33.16
35.873,33.125
35.912,33.092
35.95,33.063
35.987,33.036
36.021,33.009
36.052,32.983
36.077,32.956
36.098,32.929
36.112,32.901
36.12,32.873
36.122,32.845
36.119,32.818
36.111,32.794
36.098,32.773
36.08,32.757
36.056,32.745
36.027,32.737
35.993,32.733
35.953,32.731
35.909,32.731
35.859,32.732
35.804,32.732
35.742,32.73
35.674,32.726
35.599,32.717
35.518,32.704
35.434,32.687
35.348,32.667
35.261,32.642
35.174,32.614
35.088,32.585
35.005,32.554
34.926,32.523
34.851,32.49
34.779,32.457
34.711,32.424
34.647,32.39
34.586,32.356
34.529,32.322
34.474,32.288
34.422,32.254
34.372,32.222
34.325,32.195
34.28,32.174
34.237,32.165
34.196,32.172
34.155,32.199
34.114,32.251
34.074,32.334
34.035,32.451
33.995,32.606
33.956,32.802
33.919,33.04
33.883,33.321
33.85,33.643
33.819,34.002
33.79,34.393
33.764,34.812
33.739,35.252
33.716,35.709
33.693,36.177
33.673,36.652
33.653,37.127
33.633,37.598
33.613,38.059
33.591,38.504
33.569,38.929
33.545,39.329
33.522,39.699
33.5,40.037
33.478,40.337
33.458,40.596
33.438,40.812
33.421,40.982
33.405,41.108
33.392,41.188
33.382,41.227
33.375,41.227
33.369,41.19
33.364,41.121
33.358,41.024
33.35,40.903
33.341,40.76
33.329,40.599
33.316,40.422
33.3,40.232
33.282,40.03
33.263,39.821
33.241,39.606
33.218,39.388
33.195,39.168
33.171,38.95
33.149,38.735
33.127,38.524
33.105,38.318
33.083,38.119
33.06,37.926
33.036,37.741
33.012,37.563
32.989,37.392
32.966,37.225
32.945,37.063
32.926,36.904
32.91,36.748
32.899,36.596
32.893,36.446
32.895,36.301
32.907,36.161
32.93,36.027
32.967,35.899
33.022,35.779
33.097,35.667
33.196,35.564
33.321,35.473
33.474,35.393
33.658,35.326
33.873,35.273
34.119,35.233
34.395,35.207
34.697,35.195
35.022,35.196
35.364,35.211
35.719,35.238
36.08,35.277
36.443,35.328
36.801,35.39
37.148,35.459
37.479,35.536
37.792,35.619
38.083,35.705
38.35,35.794
38.592,35.883
38.808,35.971
38.996,36.056
39.157,36.136
39.291,36.209
39.399,36.273
39.48,36.327
39.537,36.371
39.569,36.403
39.578,36.423
39.564,36.431
39.531,36.427
39.48,36.411
39.414,36.383
39.335,36.346
39.245,36.298
39.146,36.24
39.038,36.174
38.925,36.099
38.807,36.017
38.686,35.929
38.562,35.837
38.436,35.741
38.308,35.641
38.18,35.538
38.052,35.433
37.927,35.326
37.804,35.217
37.684,35.107
37.566,34.995
37.45,34.883
37.337,34.77
37.225,34.658
37.117,34.554
37.011,34.462
36.908,34.381
36.806,34.309
36.707,34.243
36.608,34.179
36.51,34.116
36.416,34.05
36.325,33.981
36.238,33.907
36.155,33.829
36.076,33.747
36.001,33.662
35.931,33.577
35.867,33.493
35.808,33.412
35.757,33.333
35.713,33.26
35.677,33.191
35.646,33.128
35.623,33.07
35.608,33.019
35.6,32.974
35.6,32.934
35.607,32.9
35.622,32.87
35.643,32.845
35.671,32.823
35.703,32.805
35.74,32.789
35.78,32.775
35.822,32.763
35.865,32.754
35.908,32.746
35.948,32.738
35.984,32.728
36.016,32.716
36.043,32.702
36.064,32.686
36.08,32.667
36.089,32.646
36.091,32.625
36.086,32.603
36.075,32.583
36.057,32.563
36.033,32.544
36.003,32.526
35.966,32.508
35.923,32.49
35.875,32.472
35.82,32.455
35.759,32.437
35.694,32.419
35.624,32.401
35.551,32.382
35.473,32.361
35.391,32.338
35.305,32.313
35.215,32.286
35.125,32.258
35.035,32.229
34.948,32.2
34.865,32.171
34.785,32.143
34.709,32.119
34.638,32.1
34.57,32.089
34.508,32.09
34.449,32.106
34.395,32.143
34.345,32.205
34.298,32.297
34.253,32.426
34.21,32.595
34.168,32.807
34.127,33.063
34.087,33.364
34.047,33.705
34.009,34.085
33.97,34.498
33.932,34.937
33.894,35.398
33.855,35.872
33.818,36.353
33.782,36.836
33.749,37.314
33.716,37.784
33.684,38.239
33.651,38.676
33.617,39.087
33.583,39.47
33.549,39.819
33.517,40.132
33.488,40.406
33.46,40.641
33.436,40.836
33.414,40.99
33.395,41.103
33.378,41.175
33.364,41.205
33.353,41.196
33.344,41.149
33.335,41.068
33.327,40.956
33.318,40.817
33.306,40.656
33.294,40.476
33.281,40.28
33.269,40.074
33.257,39.86
33.245,39.641
33.232,39.419
33.22,39.197
33.206,38.975
33.192,38.757
33.177,38.543
33.161,38.336
33.144,38.136
33.125,37.944
33.103,37.759
33.079,37.581
33.052,37.41
33.024,37.244
32.995,37.083
32.964,36.926
32.932,36.772
32.899,36.621
32.866,36.473
32.833,36.329
32.8,36.188
32.769,36.052
32.742,35.921
32.719,35.795
32.701,35.676
32.691,35.566
32.69,35.464
32.699,35.374
32.719,35.296
32.754,35.231
32.805,35.179
32.876,35.142
32.97,35.121
33.089,35.116
33.236,35.126
33.413,35.153
33.621,35.194
33.859,35.249
34.126,35.316
34.419,35.393
34.736,35.479
35.072,35.57
35.423,35.665
35.783,35.761
36.144,35.856
36.501,35.948
36.848,36.033
37.181,36.113
37.498,36.186
37.796,36.252
38.072,36.308
38.327,36.355
38.557,36.391
38.763,36.415
38.944,36.428
39.099,36.428
39.228,36.416
39.331,36.392
39.409,36.357
39.462,36.312
39.491,36.257
39.498,36.195
39.484,36.126
39.45,36.051
39.397,35.968
39.327,35.88
39.243,35.787
39.146,35.688
39.039,35.585
38.923,35.479
38.801,35.368
38.674,35.255
38.544,35.139
38.413,35.022
38.283,34.903
38.158,34.785
38.046,34.665
37.948,34.546
37.861,34.427
37.783,34.309
37.709,34.193
37.635,34.08
37.557,33.972
37.471,33.868
37.374,33.771
37.265,33.68
37.147,33.596
37.02,33.518
36.885,33.446
36.747,33.378
36.606,33.316
36.464,33.258
36.325,33.205
36.191,33.155
36.064,33.109
35.947,33.065
35.841,33.024
35.748,32.985
35.667,32.948
35.598,32.914
35.542,32.883
35.499,32.855
35.466,32.829
35.445,32.807
35.434,32.787
35.43,32.768
35.433,32.752
35.442,32.737
35.456,32.722
35.476,32.708
35.5,32.692
35.529,32.675
35.562,32.656
35.599,32.635
35.638,32.614
35.679,32.593
35.72,32.571
35.761,32.551
35.8,32.532
35.836,32.513
35.869,32.494
35.897,32.476
35.92,32.458
35.938,32.441
35.95,32.425
35.956,32.408
35.957,32.392
35.951,32.375
35.939,32.359
35.921,32.341
35.896,32.323
35.864,32.303
35.826,32.282
35.781,32.26
35.731,32.236
35.674,32.211
35.612,32.183
35.545,32.154
35.473,32.124
35.399,32.093
35.324,32.064
35.248,32.038
35.171,32.015
35.095,32
35.019,31.994
34.943,32
34.867,32.024
34.791,32.068
34.716,32.139
34.642,32.242
34.57,32.381
34.5,32.56
34.43,32.782
34.361,33.049
34.294,33.358
34.227,33.708
34.163,34.094
34.102,34.511
34.044,34.954
33.988,35.416
33.936,35.892
33.887,36.374
33.842,36.856
33.8,37.331
33.762,37.796
33.727,38.245
33.696,38.675
33.668,39.082
33.643,39.462
33.62,39.81
33.597,40.124
33.575,40.4
33.553,40.636
33.53,40.83
33.505,40.98
33.478,41.088
33.448,41.155
33.416,41.182
33.383,41.172
33.349,41.127
33.316,41.05
33.285,40.944
33.256,40.813
33.23,40.66
33.206,40.488
33.185,40.3
33.166,40.099
33.149,39.886
33.135,39.665
33.122,39.44
33.111,39.213
33.102,38.986
33.093,38.762
33.085,38.541
33.076,38.327
33.068,38.119
33.06,37.92
33.05,37.728
33.039,37.545
33.027,37.37
33.012,37.202
32.996,37.039
32.978,36.879
32.957,36.722
32.934,36.568
32.91,36.416
32.883,36.267
32.855,36.121
32.825,35.98
32.796,35.845
32.767,35.718
32.739,35.599
32.713,35.491
32.69,35.393
32.671,35.306
32.658,35.232
32.653,35.171
32.658,35.124
32.675,35.09
32.707,35.072
32.756,35.067
32.825,35.077
32.918,35.1
33.036,35.134
33.184,35.18
33.364,35.237
33.575,35.303
33.817,35.378
34.088,35.461
34.386,35.549
34.706,35.642
35.044,35.737
35.395,35.833
35.753,35.927
36.112,36.017
36.468,36.1
36.816,36.176
37.151,36.241
37.47,36.294
37.77,36.333
38.048,36.359
38.303,36.371
38.533,36.369
38.736,36.355
38.911,36.33
39.058,36.293
39.179,36.246
39.273,36.19
39.342,36.125
39.388,36.053
39.411,35.974
39.412,35.889
39.394,35.798
39.356,35.703
39.302,35.604
39.231,35.501
39.146,35.397
39.049,35.291
38.942,35.185
38.825,35.078
38.702,34.969
38.572,34.86
38.438,34.752
38.302,34.644
38.165,34.538
38.028,34.432
37.892,34.328
37.758,34.225
37.628,34.124
37.5,34.025
37.377,33.929
37.256,33.837
37.139,33.748
37.025,33.661
36.915,33.578
36.808,33.498
36.704,33.424
36.604,33.354
36.506,33.288
36.409,33.226
36.313,33.168
36.216,33.113
36.118,33.06
36.021,33.011
35.926,32.965
35.834,32.923
35.747,32.885
35.665,32.85
35.59,32.82
35.521,32.794
35.462,32.77
35.414,32.75
35.377,32.73
35.352,32.712
35.337,32.694
35.333,32.677
35.338,32.659
35.351,32.641
35.371,32.623
35.397,32.605
35.428,32.589
35.463,32.573
35.502,32.559
35.543,32.545
35.586,32.533
35.63,32.522
35.674,32.512
35.717,32.502
35.758,32.493
35.796,32.482
35.829,32.47
35.857,32.458
35.88,32.446
35.897,32.432
35.909,32.418
35.915,32.404
35.915,32.389
35.91,32.373
35.899,32.355
35.883,32.336
35.861,32.314
35.835,32.289
35.802,32.261
35.764,32.23
35.721,32.197
35.672,32.161
35.617,32.124
35.557,32.087
35.492,32.051
35.422,32.016
35.348,31.983
35.272,31.952
35.194,31.927
35.114,31.911
35.033,31.908
34.951,31.92
34.869,31.954
34.788,32.012
34.708,32.101
34.631,32.226
34.553,32.391
34.467,32.601
34.369,32.858
34.261,33.161
34.145,33.508
34.028,33.897
33.914,34.322
33.809,34.777
33.716,35.256
33.639,35.751
33.578,36.256
33.535,36.761
33.507,37.261
33.494,37.749
33.492,38.22
33.5,38.67
33.514,39.093
33.531,39.486
33.549,39.845
33.565,40.168
33.578,40.455
33.586,40.707
33.588,40.922
33.584,41.097
33.572,41.232
33.554,41.324
33.531,41.375
33.503,41.383
33.473,41.352
33.44,41.283
33.407,41.181
33.375,41.05
33.344,40.892
33.316,40.712
33.291,40.514
33.27,40.302
33.254,40.079
33.242,39.851
33.234,39.619
33.227,39.387
33.222,39.156
33.217,38.928
33.211,38.705
33.204,38.487
33.194,38.276
33.182,38.071
33.168,37.873
33.151,37.682
33.133,37.498
33.112,37.321
33.09,37.149
33.068,36.982
33.046,36.819
33.023,36.659
33,36.503
32.975,36.348
32.949,36.197
32.923,36.049
32.897,35.906
32.872,35.77
32.849,35.642
32.83,35.523
32.815,35.415
32.806,35.32
32.805,35.24
32.814,35.176
32.837,35.128
32.875,35.096
32.934,35.082
33.014,35.083
33.12,35.099
33.255,35.129
33.421,35.172
33.62,35.227
33.851,35.294
34.115,35.369
34.408,35.452
34.725,35.541
35.062,35.634
35.413,35.729
35.772,35.826
36.134,35.921
36.494,36.013
36.847,36.099
37.188,36.179
37.511,36.251
37.814,36.314
38.095,36.368
38.352,36.412
38.583,36.444
38.789,36.465
38.968,36.473
39.12,36.468
39.246,36.451
39.346,36.422
39.421,36.381
39.471,36.331
39.499,36.27
39.504,36.202
39.488,36.127
39.454,36.044
39.402,35.956
39.333,35.861
39.249,35.762
39.152,35.657
39.044,35.549
38.928,35.437
38.807,35.323
38.68,35.207
38.551,35.091
38.421,34.975
38.289,34.86
38.158,34.747
38.027,34.635
37.897,34.524
37.768,34.415
37.642,34.309
37.517,34.206
37.396,34.106
37.277,34.01
37.162,33.917
37.048,33.828
36.937,33.742
36.828,33.66
36.721,33.582
36.615,33.507
36.511,33.435
36.408,33.368
36.305,33.304
36.204,33.244
36.104,33.189
36.007,33.137
35.914,33.088
35.824,33.043
35.74,33
35.661,32.961
35.59,32.925
35.526,32.892
35.47,32.862
35.425,32.835
35.39,32.812
35.365,32.793
35.35,32.777
35.347,32.764
35.354,32.752
35.372,32.743
35.398,32.735
35.434,32.728
35.476,32.722
35.525,32.716
35.577,32.71
35.63,32.703
35.683,32.697
35.735,32.69
35.785,32.683
35.831,32.674
35.874,32.664
35.912,32.653
35.943,32.641
35.968,32.627
35.988,32.611
36.001,32.594
36.01,32.575
36.013,32.556
36.01,32.535
36.001,32.512
35.986,32.489
35.965,32.466
35.938,32.443
35.906,32.42
35.869,32.398
35.827,32.375
35.779,32.351
35.727,32.325
35.67,32.296
35.608,32.264
35.543,32.23
35.474,32.195
35.402,32.159
35.328,32.124
35.252,32.089
35.173,32.058
35.092,32.031
35.01,32.011
34.928,32
34.847,32.001
34.766,32.017
34.687,32.053
34.609,32.115
34.534,32.208
34.461,32.337
34.391,32.505
34.325,32.715
34.262,32.97
34.202,33.269
34.144,33.611
34.089,33.993
34.037,34.411
33.987,34.857
33.938,35.325
33.889,35.809
33.838,36.301
33.787,36.797
33.737,37.289
33.688,37.772
33.642,38.239
33.599,38.685
33.561,39.104
33.527,39.493
33.5,39.848
33.478,40.167
33.461,40.448
33.449,40.689
33.44,40.887
33.431,41.043
33.423,41.156
33.415,41.228
33.405,41.26
33.393,41.255
33.379,41.215
33.363,41.143
33.345,41.042
33.328,40.917
33.311,40.768
33.295,40.602
33.28,40.42
33.267,40.227
33.255,40.025
33.244,39.817
33.233,39.604
33.226,39.389
33.226,39.174
33.236,38.96
33.253,38.75
33.274,38.544
33.294,38.344
33.311,38.148
33.32,37.958
33.319,37.774
33.309,37.593
33.289,37.416
33.259,37.242
33.221,37.072
33.177,36.905
33.128,36.744
33.076,36.588
33.022,36.438
32.968,36.295
32.917,36.158
32.871,36.028
32.833,35.904
32.805,35.788
32.79,35.681
32.791,35.585
32.808,35.499
32.845,35.426
32.905,35.367
32.991,35.322
33.107,35.292
33.254,35.277
33.434,35.277
33.647,35.291
33.892,35.319
34.166,35.361
34.469,35.415
34.795,35.48
35.141,35.554
35.503,35.634
35.874,35.72
36.249,35.809
36.623,35.899
36.99,35.986
37.345,36.07
37.683,36.15
38.001,36.225
38.296,36.292
38.566,36.352
38.808,36.404
39.021,36.447
39.207,36.482
39.363,36.508
39.491,36.524
39.59,36.531
39.661,36.528
39.706,36.516
39.726,36.494
39.722,36.463
39.697,36.422
39.653,36.372
39.591,36.313
39.514,36.245
39.424,36.169
39.323,36.086
39.214,35.997
39.098,35.902
38.977,35.801
38.852,35.695
38.726,35.584
38.598,35.469
38.47,35.351
38.342,35.232
38.215,35.11
38.09,34.988
37.965,34.865
37.841,34.743
37.719,34.622
37.598,34.505
37.479,34.391
37.364,34.281
37.251,34.174
37.14,34.072
37.031,33.975
36.924,33.882
36.818,33.795
36.713,33.714
36.609,33.639
36.508,33.569
36.408,33.506
36.312,33.449
36.218,33.397
36.129,33.35
36.045,33.307
35.968,33.266
35.897,33.229
35.834,33.193
35.779,33.159
35.73,33.126
35.689,33.094
35.656,33.061
35.631,33.029
35.614,32.996
35.606,32.964
35.607,32.936
35.616,32.917
35.633,32.909
35.656,32.911
35.684,32.921
35.718,32.933
35.756,32.946
35.796,32.955
35.837,32.959
35.877,32.956
35.916,32.947
35.951,32.93
35.982,32.907
36.011,32.879
36.035,32.847
36.055,32.813
36.07,32.778
36.079,32.743
36.083,32.708
36.081,32.674
36.072,32.642
36.058,32.611
36.039,32.583
36.014,32.557
35.983,32.532
35.946,32.508
35.903,32.486
35.855,32.464
35.802,32.442
35.744,32.419
35.683,32.394
35.618,32.368
35.55,32.34
35.479,32.311
35.406,32.28
35.332,32.249
35.257,32.217
35.18,32.184
35.103,32.151
35.025,32.12
34.947,32.092
34.869,32.071
34.793,32.056
34.719,32.053
34.647,32.063
34.578,32.092
34.511,32.144
34.446,32.222
34.385,32.332
34.326,32.477
34.269,32.661
34.214,32.887
34.161,33.155
34.111,33.465
34.063,33.815
34.019,34.201
33.976,34.618
33.935,35.059
33.897,35.518
33.86,35.989
33.826,36.466
33.794,36.941
33.764,37.408
33.735,37.862
33.706,38.296
33.679,38.698
33.656,39.059
33.638,39.375
33.624,39.648
33.613,39.881
33.604,40.079
33.593,40.246
33.581,40.386
33.565,40.5
33.546,40.592
33.523,40.662
33.497,40.711
33.468,40.739
33.438,40.744
33.407,40.726
33.376,40.684
33.345,40.617
33.315,40.528
33.286,40.416
33.259,40.284
33.234,40.133
33.21,39.965
33.188,39.782
33.166,39.587
33.144,39.383
33.123,39.172
33.102,38.958
33.083,38.743
33.064,38.529
33.045,38.317
33.026,38.111
33.008,37.91
32.989,37.717
32.97,37.531
32.951,37.352
32.934,37.18
32.919,37.014
32.907,36.854
32.899,36.7
32.896,36.55
32.901,36.405
32.916,36.264
32.944,36.129
32.988,36.001
33.053,35.88
33.143,35.768
33.261,35.665
33.41,35.573
33.592,35.492
33.809,35.423
34.059,35.366
34.34,35.321
34.648,35.289
34.979,35.269
35.326,35.261
35.684,35.266
36.047,35.285
36.41,35.315
36.767,35.358
37.113,35.412
37.444,35.475
37.756,35.547
38.046,35.624
38.313,35.706
38.555,35.792
38.771,35.878
38.961,35.963
39.124,36.045
39.262,36.122
39.374,36.193
39.462,36.257
39.526,36.311
39.568,36.356
39.587,36.391
39.585,36.414
39.563,36.426
39.523,36.426
39.465,36.413
39.392,36.389
39.305,36.354
39.207,36.309
39.099,36.253
38.983,36.187
38.861,36.113
38.734,36.033
38.602,35.947
38.469,35.856
38.334,35.762
38.201,35.664
38.071,35.563
37.942,35.459
37.817,35.354
37.695,35.247
37.577,35.138
37.462,35.029
37.351,34.92
37.243,34.809
37.137,34.698
37.032,34.586
36.929,34.475
36.826,34.364
36.724,34.254
36.623,34.146
36.521,34.042
36.419,33.942
36.319,33.848
36.221,33.759
36.126,33.674
36.035,33.594
35.95,33.519
35.871,33.448
35.8,33.383
35.736,33.323
35.682,33.266
35.636,33.212
35.601,33.162
35.576,33.116
35.562,33.074
35.558,33.035
35.562,32.999
35.575,32.966
35.595,32.937
35.621,32.909
35.652,32.882
35.687,32.856
35.724,32.832
35.763,32.811
35.801,32.794
35.837,32.779
35.871,32.766
35.902,32.755
35.928,32.745
35.949,32.736
35.963,32.727
35.971,32.717
35.973,32.705
35.97,32.693
35.962,32.68
35.95,32.666
35.934,32.652
35.915,32.635
35.891,32.616
35.863,32.595
35.832,32.572
35.798,32.548
35.761,32.523
35.721,32.498
35.678,32.473
35.633,32.451
35.584,32.431
35.532,32.413
35.478,32.396
35.42,32.379
35.359,32.362
35.296,32.344
35.23,32.324
35.163,32.302
35.093,32.279
35.022,32.255
34.949,32.23
34.874,32.203
34.798,32.173
34.722,32.142
34.645,32.11
34.57,32.078
34.493,32.048
34.411,32.02
34.322,31.996
34.227,31.98
34.13,31.974
34.035,31.983
33.945,32.012
33.863,32.066
33.792,32.149
33.732,32.267
33.684,32.425
33.647,32.627
33.621,32.874
33.603,33.165
33.592,33.5
33.584,33.874
33.579,34.283
33.575,34.72
33.57,35.179
33.563,35.652
33.556,36.132
33.546,36.611
33.534,37.085
33.519,37.547
33.503,37.994
33.484,38.418
33.464,38.817
33.442,39.186
33.418,39.522
33.394,39.823
33.37,40.086
33.346,40.311
33.323,40.497
33.304,40.645
33.286,40.755
33.27,40.829
33.256,40.866
33.244,40.868
33.232,40.837
33.221,40.775
33.209,40.686
33.197,40.571
33.183,40.434
33.169,40.279
33.153,40.108
33.135,39.924
33.115,39.731
33.093,39.53
33.069,39.324
33.043,39.114
33.017,38.904
32.99,38.694
32.963,38.486
32.938,38.283
32.914,38.084
32.892,37.892
32.875,37.707
32.864,37.529
32.861,37.358
32.87,37.193
32.892,37.034
32.93,36.88
32.986,36.73
33.065,36.584
33.168,36.441
33.299,36.301
33.461,36.165
33.652,36.032
33.875,35.903
34.126,35.781
34.403,35.665
34.702,35.558
35.021,35.461
35.355,35.374
35.699,35.298
36.05,35.235
36.402,35.184
36.75,35.147
37.09,35.125
37.419,35.116
37.734,35.12
38.031,35.138
38.309,35.169
38.563,35.211
38.793,35.264
38.997,35.326
39.174,35.394
39.324,35.468
39.447,35.546
39.542,35.627
39.611,35.711
39.654,35.794
39.672,35.874
39.667,35.952
39.641,36.024
39.594,36.09
39.53,36.147
39.451,36.194
39.357,36.229
39.252,36.254
39.139,36.268
39.019,36.27
38.893,36.262
38.764,36.244
38.633,36.215
38.501,36.176
38.368,36.126
38.237,36.068
38.106,36
37.978,35.924
37.851,35.84
37.726,35.749
37.604,35.651
37.484,35.549
37.367,35.444
37.253,35.337
37.143,35.228
37.035,35.118
36.93,35.008
36.828,34.898
36.728,34.789
36.63,34.682
36.535,34.576
36.443,34.473
36.353,34.371
36.266,34.271
36.181,34.174
36.099,34.079
36.02,33.987
35.945,33.896
35.874,33.807
35.807,33.719
35.747,33.634
35.694,33.552
35.648,33.474
35.612,33.401
35.586,33.332
35.57,33.267
35.564,33.208
35.568,33.154
35.581,33.103
35.603,33.057
35.631,33.014
35.664,32.975
35.702,32.94
35.744,32.908
35.788,32.879
35.831,32.852
35.873,32.827
35.912,32.803
35.947,32.781
35.979,32.759
36.005,32.739
36.027,32.719
36.044,32.7
36.055,32.681
36.06,32.662
36.059,32.643
36.052,32.623
36.04,32.601
36.022,32.578
35.999,32.556
35.971,32.533
35.937,32.511
35.899,32.491
35.854,32.472
35.805,32.454
35.752,32.438
35.693,32.424
35.63,32.409
35.563,32.393
35.491,32.376
35.417,32.358
35.34,32.34
35.261,32.322
35.181,32.303
35.1,32.285
35.018,32.266
34.936,32.247
34.855,32.229
34.775,32.21
34.698,32.19
34.624,32.169
34.553,32.147
34.486,32.124
34.423,32.099
34.363,32.073
34.305,32.046
34.248,32.018
34.193,31.99
34.14,31.963
34.089,31.938
34.041,31.917
33.995,31.901
33.952,31.892
33.911,31.894
33.872,31.907
33.836,31.937
33.803,31.986
33.773,32.061
33.746,32.165
33.72,32.303
33.695,32.48
33.671,32.697
33.646,32.957
33.622,33.26
33.598,33.604
33.574,33.986
33.55,34.4
33.526,34.84
33.5,35.299
33.474,35.771
33.448,36.247
33.422,36.722
33.397,37.19
33.372,37.643
33.348,38.078
33.326,38.489
33.306,38.874
33.288,39.23
33.273,39.555
33.26,39.845
33.249,40.099
33.24,40.316
33.232,40.495
33.223,40.636
33.214,40.739
33.203,40.805
33.19,40.834
33.174,40.827
33.155,40.787
33.133,40.714
33.109,40.612
33.083,40.484
33.056,40.333
33.025,40.165
32.993,39.982
32.958,39.789
32.924,39.588
32.891,39.382
32.861,39.172
32.837,38.962
32.82,38.751
32.811,38.542
32.812,38.335
32.825,38.132
32.853,37.934
32.898,37.74
32.964,37.552
33.054,37.372
33.171,37.198
33.317,37.033
33.493,36.874
33.7,36.723
33.936,36.577
34.202,36.435
34.493,36.297
34.807,36.161
35.137,36.027
35.481,35.895
35.832,35.767
36.186,35.645
36.539,35.529
36.886,35.422
37.223,35.326
37.546,35.242
37.851,35.172
38.135,35.117
38.397,35.075
38.635,35.049
38.849,35.039
39.037,35.043
39.2,35.062
39.337,35.093
39.449,35.137
39.535,35.192
39.597,35.257
39.635,35.331
39.65,35.412
39.642,35.498
39.614,35.587
39.567,35.675
39.502,35.762
39.423,35.845
39.33,35.923
39.226,35.997
39.112,36.063
38.99,36.121
38.863,36.17
38.731,36.21
38.597,36.241
38.463,36.261
38.329,36.27
38.197,36.27
38.067,36.259
37.941,36.239
37.819,36.21
37.701,36.173
37.586,36.128
37.475,36.075
37.366,36.015
37.259,35.947
37.153,35.871
37.048,35.789
36.945,35.7
36.843,35.603
36.744,35.5
36.647,35.392
36.55,35.278
36.455,35.163
36.362,35.046
36.272,34.928
36.186,34.81
36.104,34.692
36.027,34.575
35.955,34.461
35.889,34.349
35.827,34.239
35.772,34.133
35.724,34.029
35.684,33.928
35.651,33.832
35.626,33.74
35.61,33.652
35.603,33.569
35.604,33.491
35.613,33.418
35.63,33.351
35.654,33.288
35.685,33.231
35.719,33.179
35.756,33.132
35.794,33.088
35.831,33.048
35.868,33.01
35.904,32.973
35.939,32.937
35.971,32.902
36,32.867
36.025,32.83
36.045,32.794
36.059,32.758
36.066,32.724
36.067,32.693
36.059,32.666
36.045,32.64
36.024,32.617
35.996,32.596
35.962,32.577
35.922,32.561
35.877,32.548
35.828,32.538
35.774,32.531
35.715,32.526
35.652,32.523
35.584,32.522
35.514,32.522
35.441,32.522
35.366,32.522
35.29,32.522
35.214,32.521
35.136,32.519
35.057,32.515
34.978,32.508
34.9,32.498
34.824,32.486
34.751,32.47
34.68,32.452
34.612,32.431
34.548,32.407
34.487,32.38
34.429,32.351
34.375,32.32
34.323,32.288
34.272,32.255
34.222,32.221
34.172,32.187
34.122,32.153
34.071,32.118
34.02,32.084
33.969,32.05
33.92,32.018
33.872,31.989
33.826,31.965
33.783,31.947
33.742,31.938
33.705,31.94
33.671,31.956
33.642,31.99
33.616,32.046
33.593,32.128
33.573,32.241
33.555,32.389
33.539,32.575
33.524,32.803
33.511,33.072
33.5,33.382
33.489,33.729
33.479,34.109
33.472,34.516
33.473,34.946
33.484,35.392
33.502,35.848
33.525,36.309
33.55,36.769
33.573,37.221
33.59,37.662
33.599,38.085
33.599,38.487
33.588,38.864
33.567,39.213
33.534,39.53
33.493,39.814
33.444,40.061
33.39,40.27
33.333,40.441
33.274,40.575
33.215,40.672
33.159,40.734
33.106,40.761
33.058,40.757
33.014,40.721
32.974,40.657
32.939,40.566
32.908,40.451
32.881,40.315
32.857,40.161
32.837,39.992
32.821,39.81
32.808,39.618
32.798,39.418
32.794,39.214
32.794,39.006
32.8,38.796
32.815,38.586
32.841,38.379
32.88,38.177
32.937,37.98
33.015,37.791
33.118,37.608
33.249,37.434
33.409,37.268
33.6,37.11
33.823,36.959
34.077,36.813
34.359,36.671
34.666,36.532
34.995,36.395
35.339,36.26
35.693,36.127
36.051,35.996
36.409,35.869
36.763,35.746
37.107,35.628
37.437,35.518
37.751,35.416
38.046,35.324
38.319,35.244
38.57,35.177
38.796,35.125
38.996,35.088
39.169,35.066
39.315,35.061
39.434,35.072
39.525,35.1
39.592,35.141
39.634,35.196
39.653,35.261
39.649,35.334
39.623,35.414
39.578,35.498
39.514,35.585
39.435,35.672
39.343,35.76
39.24,35.845
39.128,35.925
39.009,36
38.885,36.069
38.757,36.129
38.628,36.179
38.499,36.22
38.371,36.25
38.243,36.269
38.117,36.277
37.993,36.273
37.872,36.26
37.753,36.238
37.637,36.207
37.523,36.167
37.411,36.119
37.3,36.064
37.19,36.002
37.08,35.933
36.97,35.859
36.863,35.779
36.757,35.695
36.654,35.608
36.553,35.519
36.455,35.429
36.36,35.337
36.27,35.242
36.185,35.144
36.105,35.043
36.03,34.938
35.96,34.831
35.896,34.722
35.837,34.611
35.786,34.499
35.741,34.387
35.704,34.276
35.674,34.165
35.652,34.057
35.638,33.951
35.632,33.849
35.635,33.752
35.646,33.66
35.664,33.575
35.69,33.496
35.72,33.424
35.754,33.357
35.791,33.295
35.829,33.238
35.867,33.184
35.905,33.133
35.942,33.085
35.975,33.04
36.004,32.997
36.028,32.957
36.046,32.919
36.057,32.884
36.063,32.85
36.063,32.82
36.058,32.793
36.047,32.769
36.029,32.747
36.006,32.728
35.978,32.709
35.943,32.692
35.904,32.676
35.858,32.66
35.808,32.642
35.754,32.622
35.695,32.601
35.633,32.578
35.567,32.554
35.499,32.53
35.43,32.507
35.359,32.487
35.288,32.469
35.218,32.454
35.148,32.442
35.078,32.433
35.007,32.425
34.937,32.418
34.868,32.411
34.799,32.403
34.731,32.395
34.664,32.385
34.598,32.375
34.533,32.363
34.469,32.348
34.407,32.331
34.345,32.311
34.285,32.289
34.226,32.266
34.169,32.241
34.114,32.216
34.062,32.192
34.014,32.168
33.97,32.144
33.931,32.121
33.896,32.099
33.865,32.077
33.837,32.059
33.81,32.046
33.783,32.041
33.755,32.048
33.726,32.072
33.695,32.118
33.664,32.191
33.633,32.296
33.601,32.439
33.568,32.623
33.536,32.852
33.506,33.126
33.477,33.443
33.45,33.801
33.426,34.193
33.405,34.614
33.386,35.058
33.367,35.518
33.348,35.985
33.33,36.453
33.313,36.913
33.295,37.36
33.279,37.789
33.263,38.196
33.248,38.579
33.233,38.935
33.218,39.261
33.202,39.556
33.184,39.819
33.163,40.049
33.141,40.245
33.118,40.406
33.094,40.534
33.07,40.627
33.046,40.686
33.022,40.712
32.999,40.706
32.975,40.669
32.953,40.602
32.932,40.508
32.912,40.391
32.893,40.253
32.875,40.097
32.859,39.926
32.843,39.742
32.829,39.548
32.817,39.345
32.807,39.136
32.801,38.923
32.8,38.707
32.806,38.492
32.823,38.278
32.854,38.068
32.901,37.863
32.969,37.663
33.061,37.469
33.182,37.28
33.334,37.097
33.517,36.92
33.732,36.75
33.977,36.584
34.252,36.422
34.552,36.264
34.876,36.108
35.217,35.955
35.573,35.804
35.936,35.654
36.302,35.509
36.665,35.368
37.02,35.234
37.362,35.109
37.689,34.993
37.997,34.89
38.282,34.8
38.542,34.726
38.776,34.668
38.983,34.627
39.162,34.602
39.313,34.596
39.436,34.607
39.531,34.635
39.598,34.68
39.639,34.74
39.655,34.813
39.649,34.898
39.621,34.993
39.573,35.096
39.507,35.205
39.424,35.318
39.327,35.431
39.219,35.542
39.101,35.65
38.975,35.752
38.844,35.847
38.709,35.932
38.572,36.006
38.433,36.066
38.295,36.113
38.158,36.146
38.024,36.164
37.893,36.167
37.767,36.157
37.645,36.133
37.528,36.098
37.416,36.052
37.309,35.997
37.205,35.933
37.105,35.861
37.007,35.782
36.911,35.695
36.817,35.602
36.724,35.503
36.633,35.401
36.543,35.297
36.453,35.192
36.365,35.086
36.277,34.98
36.191,34.873
36.108,34.765
36.026,34.658
35.948,34.552
35.874,34.446
35.805,34.341
35.741,34.237
35.684,34.134
35.634,34.034
35.592,33.936
35.56,33.841
35.539,33.749
35.529,33.659
35.53,33.572
35.541,33.487
35.561,33.404
35.588,33.324
35.623,33.247
35.662,33.173
35.705,33.102
35.749,33.037
35.793,32.975
35.836,32.922
35.878,32.885
35.916,32.866
35.95,32.864
35.978,32.871
35.999,32.885
36.014,32.898
36.02,32.908
36.019,32.911
36.01,32.905
35.994,32.889
35.971,32.862
35.941,32.827
35.905,32.785
35.864,32.738
35.819,32.688
35.77,32.637
35.72,32.586
35.667,32.539
35.613,32.496
35.557,32.458
35.497,32.426
35.436,32.399
35.373,32.377
35.308,32.359
35.242,32.346
35.174,32.337
35.103,32.333
35.031,32.332
34.956,32.333
34.881,32.337
34.804,32.34
34.728,32.342
34.651,32.34
34.577,32.335
34.504,32.326
34.434,32.315
34.366,32.3
34.3,32.284
34.237,32.265
34.177,32.246
34.12,32.227
34.066,32.209
34.017,32.191
33.971,32.175
33.927,32.16
33.885,32.148
33.844,32.141
33.805,32.14
33.767,32.146
33.73,32.161
33.695,32.19
33.661,32.236
33.629,32.304
33.598,32.397
33.569,32.52
33.541,32.678
33.516,32.874
33.494,33.109
33.473,33.385
33.453,33.699
33.433,34.049
33.414,34.431
33.394,34.837
33.373,35.262
33.353,35.7
33.332,36.144
33.311,36.589
33.29,37.027
33.269,37.454
33.248,37.863
33.227,38.251
33.208,38.613
33.189,38.947
33.172,39.251
33.156,39.524
33.14,39.764
33.124,39.971
33.108,40.143
33.09,40.282
33.073,40.388
33.055,40.463
33.037,40.508
33.018,40.524
32.998,40.512
32.978,40.474
32.958,40.41
32.937,40.323
32.915,40.214
32.891,40.086
32.865,39.942
32.837,39.782
32.808,39.61
32.778,39.426
32.749,39.234
32.72,39.035
32.695,38.832
32.676,38.626
32.663,38.42
32.661,38.215
32.671,38.013
32.696,37.816
32.739,37.624
32.801,37.44
32.886,37.263
32.996,37.092
33.133,36.928
33.299,36.769
33.495,36.614
33.722,36.46
33.978,36.309
34.26,36.16
34.566,36.013
34.892,35.871
35.234,35.734
35.586,35.604
35.943,35.482
36.3,35.371
36.653,35.271
36.997,35.184
37.329,35.109
37.645,35.049
37.943,35.003
38.22,34.974
38.473,34.962
38.703,34.966
38.907,34.985
39.087,35.019
39.24,35.066
39.367,35.125
39.467,35.195
39.542,35.273
39.591,35.357
39.614,35.445
39.614,35.536
39.592,35.629
39.549,35.723
39.486,35.816
39.407,35.908
39.313,35.996
39.207,36.079
39.092,36.155
38.969,36.223
38.84,36.281
38.708,36.328
38.572,36.364
38.436,36.388
38.3,36.399
38.166,36.397
38.034,36.382
37.906,36.356
37.781,36.318
37.659,36.27
37.541,36.211
37.426,36.143
37.314,36.066
37.203,35.983
37.092,35.894
36.983,35.799
36.873,35.699
36.764,35.594
36.655,35.485
36.547,35.374
36.44,35.26
36.336,35.144
36.235,35.026
36.137,34.906
36.041,34.784
35.95,34.661
35.864,34.539
35.786,34.419
35.714,34.304
35.651,34.193
35.596,34.088
35.55,33.989
35.513,33.898
35.486,33.813
35.469,33.734
35.462,33.66
35.465,33.591
35.477,33.527
35.495,33.466
35.52,33.411
35.551,33.36
35.587,33.313
35.627,33.268
35.668,33.226
35.71,33.187
35.752,33.149
35.791,33.112
35.829,33.077
35.864,33.044
35.896,33.012
35.923,32.981
35.946,32.953
35.963,32.925
35.973,32.9
35.976,32.875
35.972,32.852
35.961,32.829
35.944,32.806
35.922,32.785
35.894,32.765
35.861,32.746
35.822,32.727
35.779,32.71
35.73,32.693
35.676,32.677
35.619,32.662
35.559,32.648
35.496,32.634
35.431,32.62
35.364,32.606
35.295,32.591
35.224,32.576
35.153,32.561
35.081,32.544
35.009,32.526
34.936,32.508
34.862,32.489
34.786,32.469
34.711,32.448
34.636,32.426
34.561,32.402
34.488,32.379
34.416,32.356
34.345,32.333
34.277,32.311
34.211,32.29
34.148,32.272
34.088,32.258
34.031,32.249
33.976,32.25
33.924,32.261
33.875,32.289
33.829,32.338
33.786,32.412
33.746,32.518
33.71,32.658
33.678,32.837
33.648,33.058
33.622,33.323
33.596,33.629
33.572,33.976
33.548,34.357
33.523,34.768
33.5,35.202
33.476,35.652
33.453,36.111
33.431,36.574
33.41,37.036
33.389,37.501
33.368,37.964
33.348,38.42
33.329,38.861
33.313,39.278
33.3,39.665
33.291,40.017
33.285,40.327
33.282,40.593
33.278,40.812
33.274,40.984
33.269,41.109
33.261,41.188
33.251,41.225
33.238,41.221
33.221,41.182
33.2,41.111
33.176,41.012
33.15,40.887
33.122,40.742
33.095,40.581
33.069,40.406
33.044,40.221
33.022,40.031
33.001,39.838
32.981,39.643
32.963,39.448
32.945,39.255
32.928,39.066
32.91,38.88
32.89,38.697
32.87,38.52
32.847,38.347
32.823,38.178
32.797,38.014
32.771,37.853
32.745,37.696
32.723,37.541
32.705,37.389
32.692,37.24
32.687,37.094
32.694,36.95
32.715,36.808
32.755,36.668
32.817,36.531
32.905,36.395
33.023,36.263
33.174,36.134
33.359,36.01
33.577,35.892
33.829,35.783
34.111,35.682
34.42,35.592
34.752,35.514
35.102,35.449
35.464,35.399
35.833,35.363
36.204,35.342
36.57,35.338
36.927,35.35
37.271,35.377
37.6,35.42
37.909,35.477
38.198,35.546
38.464,35.625
38.706,35.713
38.922,35.807
39.112,35.902
39.275,35.997
39.41,36.09
39.518,36.178
39.599,36.259
39.654,36.333
39.684,36.397
39.691,36.452
39.677,36.496
39.643,36.53
39.59,36.554
39.519,36.567
39.433,36.569
39.334,36.562
39.223,36.545
39.104,36.518
38.977,36.484
38.845,36.441
38.709,36.392
38.57,36.336
38.432,36.273
38.294,36.202
38.158,36.126
38.025,36.043
37.895,35.955
37.768,35.862
37.646,35.764
37.528,35.665
37.415,35.566
37.307,35.465
37.201,35.363
37.099,35.26
36.998,35.154
36.899,35.045
36.802,34.933
36.706,34.818
36.611,34.701
36.516,34.584
36.421,34.466
36.325,34.348
36.229,34.232
36.134,34.118
36.042,34.01
35.955,33.907
35.873,33.812
35.797,33.723
35.73,33.643
35.672,33.57
35.625,33.504
35.59,33.444
35.566,33.39
35.552,33.34
35.549,33.294
35.554,33.25
35.565,33.211
35.583,33.174
35.607,33.139
35.636,33.107
35.668,33.077
35.703,33.05
35.74,33.026
35.779,33.004
35.819,32.983
35.858,32.962
35.896,32.942
35.932,32.924
35.964,32.907
35.991,32.891
36.012,32.876
36.028,32.861
36.036,32.847
36.038,32.833
36.033,32.819
36.023,32.804
36.007,32.788
35.986,32.77
35.959,32.752
35.926,32.733
35.889,32.712
35.847,32.69
35.8,32.667
35.749,32.643
35.693,32.62
35.632,32.596
35.566,32.571
35.497,32.546
35.425,32.52
35.351,32.494
35.275,32.469
35.199,32.446
35.121,32.423
35.044,32.402
34.967,32.382
34.891,32.364
34.815,32.349
34.739,32.338
34.665,32.333
34.59,32.338
34.517,32.356
34.446,32.391
34.378,32.448
34.312,32.531
34.25,32.647
34.192,32.799
34.136,32.991
34.083,33.225
34.032,33.5
33.983,33.816
33.938,34.169
33.895,34.555
33.855,34.968
33.817,35.404
33.782,35.854
33.747,36.313
33.713,36.773
33.679,37.23
33.646,37.678
33.614,38.113
33.583,38.532
33.553,38.93
33.525,39.304
33.499,39.65
33.474,39.965
33.451,40.246
33.428,40.492
33.405,40.702
33.383,40.875
33.362,41.01
33.342,41.108
33.323,41.169
33.304,41.196
33.286,41.188
33.269,41.15
33.251,41.082
33.234,40.99
33.219,40.876
33.205,40.742
33.191,40.592
33.177,40.429
33.164,40.255
33.15,40.072
33.136,39.884
33.121,39.693
33.107,39.498
33.092,39.302
33.077,39.106
33.063,38.912
33.05,38.722
33.036,38.536
33.023,38.355
33.01,38.182
32.995,38.015
32.979,37.855
32.962,37.701
32.944,37.553
32.924,37.409
32.903,37.268
32.881,37.132
32.86,36.998
32.838,36.865
32.816,36.735
32.795,36.607
32.775,36.482
32.756,36.361
32.739,36.245
32.725,36.133
32.715,36.029
32.712,35.932
32.719,35.845
32.737,35.768
32.771,35.704
32.826,35.653
32.906,35.615
33.014,35.592
33.154,35.582
33.327,35.586
33.535,35.602
33.777,35.632
34.05,35.674
34.353,35.726
34.681,35.788
35.029,35.857
35.391,35.933
35.761,36.014
36.134,36.097
36.504,36.181
36.866,36.263
37.216,36.343
37.549,36.418
37.863,36.488
38.154,36.549
38.422,36.6
38.665,36.639
38.881,36.665
39.069,36.676
39.229,36.674
39.362,36.66
39.466,36.633
39.545,36.595
39.598,36.547
39.627,36.488
39.632,36.422
39.616,36.348
39.58,36.269
39.525,36.184
39.453,36.095
39.366,36
39.265,35.902
39.15,35.8
39.021,35.694
38.883,35.587
38.737,35.478
38.586,35.368
38.433,35.258
38.28,35.148
38.128,35.039
37.981,34.932
37.838,34.827
37.702,34.723
37.572,34.621
37.449,34.521
37.333,34.422
37.223,34.327
37.118,34.236
37.017,34.148
36.92,34.062
36.825,33.98
36.731,33.901
36.639,33.824
36.546,33.75
36.453,33.679
36.36,33.612
36.265,33.549
36.171,33.491
36.078,33.438
35.986,33.39
35.897,33.346
35.81,33.306
35.728,33.27
35.653,33.238
35.585,33.209
35.526,33.182
35.476,33.157
35.436,33.132
35.405,33.108
35.384,33.084
35.373,33.062
35.371,33.039
35.379,33.018
35.395,32.996
35.418,32.975
35.448,32.953
35.483,32.931
35.522,32.909
35.564,32.887
35.606,32.864
35.649,32.843
35.689,32.821
35.726,32.8
35.759,32.779
35.787,32.758
35.811,32.736
35.829,32.713
35.842,32.689
35.848,32.663
35.848,32.636
35.842,32.607
35.831,32.577
35.813,32.546
35.791,32.514
35.765,32.482
35.735,32.451
35.701,32.421
35.663,32.395
35.619,32.375
35.57,32.361
35.516,32.353
35.458,32.354
35.394,32.366
35.327,32.39
35.255,32.43
35.18,32.491
35.102,32.576
35.022,32.692
34.94,32.842
34.857,33.029
34.774,33.256
34.691,33.522
34.609,33.828
34.529,34.17
34.452,34.546
34.379,34.949
34.308,35.373
34.24,35.814
34.175,36.263
34.112,36.714
34.053,37.162
33.996,37.602
33.942,38.028
33.889,38.437
33.839,38.825
33.791,39.188
33.745,39.523
33.702,39.827
33.661,40.099
33.622,40.337
33.587,40.541
33.554,40.709
33.524,40.841
33.499,40.937
33.478,40.997
33.458,41.022
33.439,41.016
33.421,40.98
33.402,40.917
33.382,40.831
33.361,40.722
33.338,40.595
33.313,40.45
33.288,40.291
33.262,40.12
33.236,39.939
33.211,39.751
33.188,39.559
33.167,39.364
33.149,39.168
33.134,38.973
33.121,38.78
33.11,38.59
33.101,38.405
33.094,38.227
33.087,38.055
33.081,37.889
33.075,37.73
33.071,37.576
33.065,37.426
33.059,37.28
33.052,37.137
33.043,36.996
33.033,36.857
33.022,36.72
33.009,36.585
32.996,36.453
32.982,36.326
32.967,36.202
32.95,36.083
32.933,35.97
32.913,35.865
32.893,35.769
32.871,35.684
32.847,35.61
32.823,35.549
32.797,35.501
32.77,35.467
32.743,35.449
32.716,35.445
32.69,35.456
32.666,35.483
32.644,35.524
32.625,35.577
32.61,35.641
32.599,35.714
32.594,35.793
32.597,35.876
32.61,35.961
32.637,36.045
32.681,36.127
32.745,36.204
32.832,36.276
32.945,36.341
33.087,36.397
33.259,36.444
33.463,36.481
33.699,36.507
33.965,36.522
34.257,36.528
34.574,36.523
34.909,36.51
35.258,36.488
35.615,36.458
35.975,36.42
36.33,36.375
36.678,36.323
37.012,36.264
37.33,36.197
37.631,36.123
37.911,36.043
38.171,35.955
38.41,35.862
38.626,35.764
38.817,35.662
38.985,35.556
39.127,35.446
39.245,35.334
39.339,35.219
39.408,35.103
39.453,34.987
39.476,34.87
39.476,34.754
39.456,34.637
39.416,34.522
39.358,34.409
39.285,34.3
39.198,34.196
39.099,34.098
38.989,34.007
38.869,33.922
38.742,33.843
38.607,33.77
38.467,33.702
38.322,33.638
38.175,33.58
38.028,33.526
37.881,33.475
37.738,33.429
37.599,33.388
37.465,33.349
37.336,33.311
37.213,33.275
37.094,33.238
36.98,33.202
36.87,33.166
36.764,33.129
36.661,33.092
36.56,33.056
36.463,33.021
36.367,32.988
36.273,32.96
36.18,32.935
36.088,32.913
35.998,32.895
35.91,32.879
35.826,32.864
35.747,32.85
35.673,32.837
35.604,32.822
35.542,32.806
35.487,32.789
35.439,32.77
35.401,32.749
35.371,32.724
35.35,32.698
35.339,32.669
35.335,32.639
35.338,32.609
35.349,32.577
35.365,32.545
35.387,32.513
35.413,32.481
35.443,32.449
35.476,32.417
35.511,32.386
35.549,32.354
35.588,32.323
35.628,32.291
35.667,32.261
35.705,32.231
35.74,32.203
35.773,32.178
35.801,32.159
35.825,32.148
35.843,32.148
35.857,32.163
35.864,32.198
35.864,32.257
35.857,32.345
35.842,32.466
35.82,32.623
35.789,32.821
35.751,33.059
35.704,33.338
35.651,33.657
35.59,34.012
35.524,34.399
35.451,34.813
35.374,35.249
35.293,35.701
35.208,36.162
35.122,36.626
35.035,37.085
34.948,37.535
34.862,37.97
34.777,38.386
34.694,38.78
34.613,39.148
34.535,39.487
34.459,39.793
34.385,40.067
34.313,40.305
34.242,40.51
34.173,40.683
34.106,40.823
34.042,40.931
33.981,41.006
33.922,41.048
33.866,41.057
33.812,41.033
33.76,40.978
33.71,40.894
33.662,40.784
33.615,40.65
33.571,40.496
33.529,40.324
33.491,40.138
33.455,39.94
33.421,39.735
33.39,39.525
33.361,39.314
33.335,39.104
33.311,38.897
33.29,38.694
33.272,38.497
33.254,38.307
33.238,38.124
33.222,37.948
33.206,37.779
33.19,37.617
33.174,37.46
33.158,37.308
33.141,37.16
33.123,37.014
33.103,36.872
33.082,36.732
33.058,36.595
33.033,36.461
33.007,36.33
32.981,36.203
32.956,36.079
32.933,35.959
32.912,35.844
32.894,35.737
32.878,35.64
32.866,35.555
32.855,35.484
32.848,35.428
32.842,35.387
32.836,35.363
32.831,35.354
32.825,35.361
32.815,35.383
32.795,35.419
32.762,35.467
32.719,35.526
32.667,35.594
32.611,35.669
32.555,35.751
32.502,35.836
32.455,35.922
32.416,36.009
32.387,36.094
32.368,36.175
32.358,36.251
32.356,36.319
32.363,36.38
32.378,36.432
32.4,36.474
32.431,36.507
32.471,36.529
32.521,36.54
32.584,36.539
32.662,36.526
32.758,36.502
32.876,36.466
33.019,36.419
33.189,36.361
33.39,36.294
33.621,36.219
33.881,36.137
34.169,36.051
34.483,35.96
34.817,35.865
35.168,35.766
35.529,35.663
35.896,35.559
36.263,35.452
36.626,35.343
36.979,35.233
37.318,35.122
37.641,35.009
37.943,34.896
38.222,34.784
38.476,34.671
38.704,34.56
38.905,34.449
39.078,34.34
39.224,34.233
39.343,34.128
39.435,34.027
39.502,33.929
39.545,33.836
39.565,33.747
39.563,33.663
39.542,33.584
39.502,33.51
39.445,33.442
39.372,33.381
39.285,33.325
39.184,33.274
39.072,33.228
38.952,33.186
38.824,33.147
38.691,33.111
38.555,33.078
38.417,33.046
38.278,33.016
38.139,32.987
38.002,32.96
37.868,32.933
37.738,32.908
37.613,32.885
37.494,32.863
37.378,32.843
37.267,32.825
37.158,32.809
37.051,32.794
36.946,32.779
36.843,32.765
36.741,32.751
36.64,32.738
36.54,32.724
36.44,32.711
36.34,32.697
36.243,32.683
36.146,32.669
36.052,32.653
35.961,32.636
35.875,32.617
35.794,32.596
35.719,32.573
35.651,32.548
35.591,32.522
35.54,32.494
35.498,32.465
35.465,32.435
35.441,32.406
35.426,32.377
35.42,32.348
35.421,32.32
35.429,32.292
35.444,32.265
35.466,32.239
35.494,32.218
35.527,32.202
35.564,32.193
35.602,32.191
35.641,32.197
35.679,32.214
35.716,32.244
35.75,32.289
35.781,32.353
35.808,32.441
35.831,32.558
35.85,32.709
35.864,32.897
35.874,33.125
35.879,33.394
35.879,33.703
35.873,34.049
35.863,34.427
35.845,34.833
35.82,35.26
35.788,35.704
35.749,36.157
35.701,36.613
35.647,37.067
35.588,37.511
35.524,37.942
35.456,38.354
35.387,38.744
35.315,39.11
35.242,39.446
35.167,39.75
35.092,40.021
35.015,40.255
34.938,40.451
34.861,40.608
34.785,40.728
34.708,40.81
34.63,40.858
34.553,40.874
34.476,40.86
34.399,40.817
34.324,40.748
34.249,40.656
34.178,40.544
34.109,40.414
34.042,40.269
33.979,40.111
33.918,39.941
33.861,39.763
33.808,39.578
33.759,39.389
33.713,39.196
33.671,39.003
33.631,38.809
33.594,38.618
33.559,38.43
33.527,38.246
33.496,38.066
33.465,37.892
33.434,37.723
33.403,37.558
33.372,37.398
33.341,37.241
33.312,37.088
33.282,36.94
33.254,36.794
33.226,36.653
33.2,36.514
33.175,36.379
33.151,36.249
33.127,36.123
33.105,36.003
33.084,35.889
33.063,35.783
33.044,35.685
33.026,35.597
33.009,35.518
32.993,35.45
32.978,35.394
32.965,35.351
32.951,35.323
32.938,35.31
32.925,35.312
32.914,35.329
32.902,35.36
32.891,35.406
32.878,35.463
32.865,35.53
32.852,35.605
32.837,35.686
32.822,35.772
32.806,35.861
32.79,35.95
32.775,36.038
32.759,36.122
32.742,36.2
32.724,36.271
32.705,36.334
32.686,36.387
32.668,36.43
32.652,36.461
32.637,36.481
32.624,36.49
32.612,36.488
32.6,36.476
32.59,36.454
32.584,36.422
32.584,36.382
32.591,36.331
32.609,36.27
32.642,36.199
32.691,36.12
32.762,36.034
32.856,35.94
32.98,35.84
33.135,35.734
33.322,35.623
33.542,35.508
33.795,35.391
34.077,35.272
34.387,35.152
34.72,35.031
35.071,34.91
35.435,34.79
35.805,34.672
36.175,34.558
36.539,34.446
36.894,34.339
37.235,34.236
37.558,34.136
37.86,34.042
38.139,33.953
38.393,33.869
38.62,33.789
38.82,33.713
38.992,33.641
39.137,33.572
39.256,33.506
39.35,33.444
39.42,33.384
39.469,33.327
39.497,33.273
39.505,33.222
39.495,33.173
39.468,33.128
39.425,33.085
39.366,33.045
39.293,33.009
39.208,32.975
39.11,32.944
39.003,32.917
38.886,32.893
38.762,32.871
38.632,32.852
38.498,32.835
38.36,32.818
38.221,32.801
38.083,32.784
37.945,32.769
37.808,32.755
37.675,32.743
37.545,32.731
37.42,32.721
37.299,32.711
37.184,32.701
37.073,32.692
36.967,32.681
36.865,32.67
36.765,32.657
36.666,32.641
36.566,32.624
36.466,32.604
36.367,32.582
36.269,32.557
36.172,32.531
36.078,32.503
35.986,32.475
35.899,32.446
35.817,32.418
35.74,32.389
35.671,32.36
35.61,32.331
35.557,32.301
35.512,32.264
35.476,32.218
35.449,32.163
35.431,32.102
35.421,32.036
35.419,31.971
35.425,31.909
35.437,31.856
35.453,31.816
35.474,31.79
35.499,31.784
35.528,31.799
35.56,31.84
35.594,31.91
35.63,32.014
35.666,32.155
35.7,32.335
35.731,32.556
35.759,32.82
35.783,33.125
35.804,33.47
35.82,33.853
35.831,34.269
35.838,34.711
35.839,35.173
35.834,35.648
35.824,36.127
35.807,36.605
35.785,37.073
35.757,37.528
35.723,37.962
35.682,38.371
35.635,38.752
35.582,39.101
35.524,39.417
35.461,39.698
35.394,39.945
35.324,40.157
35.251,40.334
35.174,40.476
35.094,40.583
35.013,40.655
34.932,40.695
34.85,40.703
34.769,40.683
34.689,40.637
34.609,40.567
34.53,40.476
34.451,40.366
34.374,40.239
34.299,40.097
34.227,39.941
34.158,39.775
34.092,39.599
34.028,39.415
33.966,39.225
33.907,39.032
33.85,38.837
33.794,38.642
33.74,38.449
33.689,38.259
33.639,38.073
33.592,37.892
33.546,37.716
33.501,37.545
33.457,37.379
33.413,37.217
33.371,37.059
33.332,36.903
33.295,36.749
33.259,36.598
33.226,36.449
33.194,36.304
33.165,36.162
33.139,36.024
33.115,35.891
33.093,35.764
33.073,35.643
33.055,35.529
33.038,35.425
33.021,35.331
33.004,35.249
32.986,35.18
32.969,35.127
32.951,35.09
32.935,35.07
32.92,35.066
32.906,35.079
32.891,35.106
32.877,35.148
32.862,35.202
32.846,35.27
32.831,35.359
32.815,35.469
32.801,35.596
32.786,35.735
32.772,35.88
32.758,36.023
32.742,36.16
32.726,36.285
32.709,36.393
32.692,36.482
32.674,36.549
32.655,36.593
32.636,36.613
32.617,36.613
32.597,36.593
32.577,36.558
32.557,36.509
32.538,36.447
32.52,36.377
32.503,36.3
32.487,36.217
32.471,36.132
32.458,36.044
32.449,35.955
32.445,35.865
32.448,35.773
32.459,35.68
32.482,35.587
32.518,35.492
32.568,35.397
32.637,35.301
32.728,35.203
32.844,35.105
32.989,35.006
33.164,34.906
33.373,34.805
33.614,34.701
33.887,34.594
34.188,34.486
34.515,34.376
34.862,34.265
35.224,34.152
35.594,34.038
35.965,33.926
36.331,33.814
36.686,33.705
37.024,33.6
37.344,33.501
37.64,33.407
37.912,33.32
38.156,33.239
38.373,33.166
38.561,33.099
38.722,33.04
38.856,32.988
38.964,32.942
39.048,32.901
39.109,32.864
39.147,32.83
39.165,32.799
39.162,32.771
39.14,32.745
39.102,32.72
39.048,32.697
38.98,32.674
38.9,32.653
38.81,32.633
38.711,32.613
38.606,32.594
38.497,32.576
38.384,32.559
38.269,32.543
38.153,32.529
38.036,32.514
37.919,32.499
37.804,32.483
37.691,32.465
37.579,32.446
37.47,32.426
37.364,32.404
37.26,32.382
37.158,32.358
37.058,32.334
36.96,32.31
36.864,32.286
36.769,32.261
36.676,32.237
36.583,32.212
36.489,32.187
36.395,32.162
36.301,32.137
36.208,32.112
36.118,32.087
36.032,32.062
35.95,32.039
35.871,32.015
35.797,31.991
35.728,31.968
35.665,31.944
35.607,31.921
35.558,31.899
35.515,31.879
35.48,31.862
35.453,31.849
35.434,31.842
35.423,31.845
35.419,31.863
35.424,31.899
35.436,31.959
35.456,32.048
35.481,32.171
35.511,32.332
35.545,32.538
35.584,32.789
35.625,33.086
35.668,33.427
35.712,33.809
35.755,34.227
35.796,34.675
35.833,35.145
35.867,35.63
35.897,36.121
35.922,36.611
35.941,37.092
35.956,37.557
35.964,38
35.966,38.418
35.959,38.806
35.945,39.162
35.922,39.483
35.891,39.767
35.854,40.013
35.809,40.22
35.758,40.389
35.703,40.522
35.644,40.619
35.582,40.682
35.518,40.712
35.452,40.713
35.384,40.684
35.312,40.63
35.238,40.55
35.162,40.449
35.084,40.327
35.005,40.188
34.925,40.034
34.843,39.868
34.761,39.691
34.678,39.507
34.596,39.316
34.515,39.122
34.438,38.926
34.363,38.728
34.293,38.53
34.227,38.334
34.165,38.141
34.107,37.951
34.052,37.765
34.001,37.585
33.953,37.41
33.908,37.241
33.865,37.078
33.824,36.919
33.784,36.766
33.746,36.616
33.707,36.47
33.67,36.326
33.634,36.185
33.598,36.047
33.564,35.913
33.531,35.783
33.5,35.659
33.469,35.54
33.441,35.43
33.414,35.328
33.39,35.237
33.369,35.157
33.351,35.091
33.336,35.04
33.323,35.004
33.313,34.986
33.304,34.986
33.297,35.004
33.29,35.039
33.284,35.092
33.276,35.16
33.268,35.241
33.257,35.331
33.245,35.428
33.23,35.53
33.213,35.634
33.193,35.738
33.171,35.84
33.147,35.937
33.12,36.027
33.093,36.109
33.066,36.184
33.04,36.249
33.013,36.304
32.988,36.349
32.963,36.382
32.939,36.404
32.918,36.414
32.898,36.412
32.879,36.399
32.861,36.373
32.845,36.334
32.829,36.284
32.815,36.221
32.804,36.148
32.797,36.065
32.795,35.972
32.802,35.87
32.82,35.76
32.852,35.644
32.903,35.523
32.975,35.398
33.072,35.272
33.196,35.144
33.349,35.015
33.533,34.887
33.746,34.758
33.989,34.63
34.258,34.503
34.552,34.379
34.866,34.258
35.194,34.141
35.529,34.028
35.866,33.919
36.2,33.816
36.527,33.719
36.84,33.627
37.139,33.542
37.419,33.462
37.679,33.389
37.917,33.321
38.133,33.259
38.327,33.202
38.498,33.149
38.646,33.099
38.771,33.053
38.875,33.007
38.958,32.962
39.019,32.916
39.061,32.871
39.083,32.826
39.087,32.781
39.074,32.738
39.046,32.697
39.003,32.657
38.948,32.618
38.881,32.581
38.802,32.546
38.713,32.513
38.616,32.482
38.51,32.452
38.398,32.425
38.281,32.399
38.16,32.377
38.036,32.358
37.912,32.343
37.788,32.33
37.664,32.318
37.543,32.307
37.423,32.296
37.307,32.285
37.193,32.274
37.082,32.262
36.975,32.248
36.871,32.232
36.77,32.214
36.67,32.195
36.572,32.174
36.476,32.152
36.381,32.127
36.287,32.101
36.195,32.076
36.104,32.051
36.015,32.026
35.927,32.002
35.842,31.977
35.761,31.952
35.683,31.928
35.61,31.904
35.542,31.881
35.482,31.857
35.43,31.833
35.388,31.812
35.356,31.792
35.333,31.777
35.321,31.766
35.317,31.761
35.322,31.765
35.335,31.781
35.354,31.814
35.379,31.868
35.408,31.949
35.441,32.06
35.477,32.208
35.514,32.397
35.552,32.63
35.589,32.909
35.625,33.234
35.659,33.602
35.69,34.01
35.717,34.452
35.739,34.921
35.757,35.409
35.77,35.91
35.778,36.413
35.782,36.91
35.78,37.393
35.773,37.854
35.76,38.289
35.741,38.691
35.717,39.057
35.689,39.387
35.655,39.676
35.616,39.926
35.572,40.135
35.523,40.306
35.469,40.44
35.411,40.538
35.349,40.603
35.282,40.637
35.212,40.642
35.14,40.62
35.066,40.574
34.99,40.505
34.914,40.413
34.837,40.303
34.76,40.175
34.683,40.032
34.606,39.876
34.53,39.709
34.457,39.532
34.385,39.348
34.317,39.159
34.252,38.966
34.191,38.771
34.134,38.575
34.081,38.378
34.031,38.183
33.985,37.991
33.941,37.801
33.9,37.614
33.86,37.431
33.821,37.251
33.782,37.073
33.744,36.899
33.706,36.726
33.669,36.557
33.632,36.39
33.596,36.227
33.56,36.065
33.525,35.906
33.489,35.75
33.455,35.598
33.423,35.452
33.395,35.314
33.369,35.185
33.346,35.067
33.325,34.962
33.307,34.871
33.291,34.796
33.278,34.738
33.267,34.696
33.258,34.671
33.25,34.663
33.241,34.671
33.231,34.696
33.22,34.737
33.207,34.792
33.193,34.862
33.177,34.942
33.159,35.032
33.14,35.13
33.118,35.232
33.096,35.339
33.072,35.446
33.047,35.552
33.021,35.654
32.996,35.749
32.971,35.837
32.948,35.916
32.927,35.985
32.908,36.045
32.89,36.094
32.873,36.131
32.858,36.156
32.843,36.169
32.829,36.169
32.817,36.157
32.806,36.135
32.798,36.1
32.792,36.055
32.79,35.998
32.794,35.931
32.807,35.855
32.829,35.77
32.866,35.677
32.921,35.576
32.996,35.47
33.096,35.357
33.222,35.24
33.376,35.119
33.558,34.994
33.769,34.867
34.007,34.739
34.272,34.609
34.558,34.48
34.864,34.351
35.183,34.223
35.51,34.097
35.842,33.973
36.173,33.852
36.5,33.734
36.818,33.62
37.123,33.511
37.412,33.406
37.682,33.307
37.933,33.213
38.164,33.124
38.374,33.04
38.562,32.961
38.727,32.887
38.868,32.816
38.984,32.749
39.077,32.685
39.145,32.626
39.191,32.57
39.215,32.52
39.218,32.473
39.202,32.43
39.168,32.392
39.118,32.356
39.055,32.325
38.981,32.296
38.897,32.269
38.805,32.244
38.706,32.221
38.601,32.2
38.491,32.181
38.377,32.164
38.261,32.148
38.143,32.134
38.024,32.122
37.904,32.112
37.783,32.104
37.663,32.097
37.545,32.091
37.428,32.085
37.313,32.08
37.202,32.075
37.092,32.07
36.986,32.065
36.88,32.059
36.778,32.052
36.677,32.044
36.578,32.036
36.482,32.026
36.388,32.015
36.297,32.003
36.21,31.99
36.126,31.976
36.045,31.961
35.969,31.944
35.897,31.926
35.829,31.905
35.764,31.883
35.705,31.859
35.65,31.834
35.602,31.808
35.56,31.781
35.525,31.754
35.497,31.727
35.476,31.703
35.463,31.682
35.458,31.666
35.46,31.658
35.47,31.661
35.487,31.678
35.51,31.713
35.539,31.77
35.572,31.856
35.609,31.974
35.648,32.129
35.686,32.326
35.724,32.569
35.759,32.859
35.792,33.197
35.82,33.578
35.842,33.999
35.858,34.454
35.866,34.934
35.869,35.433
35.865,35.94
35.856,36.447
35.841,36.945
35.82,37.426
35.795,37.882
35.764,38.308
35.729,38.7
35.691,39.055
35.649,39.371
35.604,39.646
35.555,39.881
35.503,40.075
35.449,40.23
35.392,40.347
35.334,40.43
35.274,40.479
35.213,40.497
35.15,40.486
35.085,40.449
35.019,40.388
34.951,40.305
34.88,40.203
34.809,40.083
34.737,39.947
34.665,39.797
34.595,39.634
34.527,39.462
34.461,39.282
34.397,39.096
34.337,38.907
34.279,38.715
34.225,38.523
34.173,38.331
34.122,38.14
34.072,37.95
34.023,37.761
33.977,37.574
33.932,37.39
33.889,37.209
33.849,37.031
33.811,36.857
33.775,36.686
33.741,36.518
33.709,36.353
33.677,36.19
33.647,36.031
33.618,35.874
33.591,35.72
33.565,35.568
33.542,35.421
33.519,35.28
33.496,35.146
33.474,35.02
33.451,34.906
33.429,34.805
33.407,34.72
33.385,34.652
33.364,34.603
33.343,34.574
33.323,34.565
33.303,34.577
33.284,34.609
33.267,34.66
33.252,34.73
33.237,34.815
33.224,34.913
33.21,35.021
33.196,35.137
33.181,35.259
33.165,35.383
33.147,35.507
33.128,35.629
33.109,35.748
33.089,35.86
33.067,35.964
33.044,36.061
33.02,36.148
32.996,36.224
32.971,36.288
32.946,36.339
32.922,36.377
32.897,36.404
32.873,36.419
32.85,36.423
32.829,36.415
32.81,36.396
32.795,36.366
32.785,36.324
32.783,36.271
32.79,36.208
32.808,36.134
32.839,36.05
32.886,35.956
32.949,35.852
33.031,35.74
33.136,35.621
33.265,35.496
33.42,35.367
33.604,35.234
33.816,35.098
34.055,34.962
34.319,34.826
34.605,34.692
34.909,34.56
35.226,34.431
35.552,34.308
35.883,34.189
36.213,34.075
36.538,33.964
36.854,33.855
37.158,33.749
37.447,33.649
37.719,33.554
37.972,33.466
38.204,33.385
38.412,33.311
38.598,33.243
38.76,33.181
38.9,33.124
39.017,33.072
39.112,33.023
39.184,32.978
39.235,32.935
39.263,32.895
39.27,32.859
39.257,32.825
39.224,32.793
39.173,32.764
39.105,32.739
39.022,32.717
38.926,32.697
38.821,32.679
38.708,32.663
38.589,32.648
38.466,32.633
38.341,32.617
38.217,32.601
38.093,32.584
37.972,32.566
37.855,32.548
37.742,32.53
37.633,32.511
37.528,32.493
37.426,32.475
37.327,32.457
37.23,32.441
37.134,32.425
37.04,32.409
36.947,32.392
36.855,32.376
36.763,32.359
36.671,32.342
36.58,32.324
36.491,32.305
36.403,32.284
36.316,32.263
36.231,32.242
36.143,32.22
36.046,32.197
35.938,32.175
35.824,32.153
35.709,32.132
35.598,32.114
35.497,32.097
35.409,32.082
35.338,32.071
35.286,32.064
35.255,32.064
35.243,32.075
35.252,32.1
35.277,32.144
35.319,32.209
35.373,32.303
35.436,32.428
35.505,32.59
35.578,32.794
35.651,33.041
35.721,33.334
35.788,33.672
35.85,34.052
35.905,34.47
35.951,34.918
35.99,35.391
36.02,35.877
36.042,36.369
36.054,36.858
36.057,37.336
36.051,37.797
36.037,38.233
36.015,38.641
35.987,39.016
35.954,39.357
35.916,39.662
35.875,39.929
35.829,40.159
35.78,40.352
35.729,40.511
35.674,40.644
35.617,40.755
35.558,40.844
35.497,40.911
35.436,40.955
35.373,40.973
35.309,40.963
35.245,40.925
35.179,40.858
35.111,40.762
35.042,40.638
34.972,40.49
34.902,40.319
34.832,40.128
34.763,39.923
34.693,39.707
34.625,39.482
34.558,39.253
34.493,39.023
34.431,38.795
34.373,38.572
34.318,38.355
34.266,38.145
34.215,37.944
34.166,37.751
34.119,37.566
34.073,37.388
34.03,37.216
33.988,37.049
33.948,36.888
33.91,36.731
33.873,36.577
33.837,36.427
33.803,36.28
33.77,36.136
33.741,35.996
33.714,35.86
33.69,35.73
33.67,35.607
33.651,35.492
33.633,35.387
33.616,35.293
33.601,35.212
33.588,35.145
33.576,35.093
33.564,35.056
33.552,35.034
33.539,35.027
33.525,35.036
33.511,35.06
33.496,35.1
33.48,35.153
33.465,35.219
33.449,35.296
33.433,35.382
33.415,35.478
33.397,35.581
33.378,35.688
33.359,35.796
33.34,35.903
33.321,36.004
33.303,36.1
33.285,36.188
33.266,36.267
33.248,36.336
33.23,36.394
33.213,36.439
33.196,36.472
33.181,36.491
33.166,36.498
33.152,36.493
33.138,36.476
33.124,36.446
33.109,36.403
33.093,36.35
33.078,36.287
33.064,36.214
33.05,36.132
33.037,36.041
33.027,35.942
33.021,35.836
33.02,35.723
33.029,35.603
33.048,35.478
33.082,35.349
33.132,35.216
33.203,35.081
33.295,34.946
33.412,34.81
33.554,34.677
33.724,34.548
33.92,34.423
34.142,34.305
34.388,34.192
34.656,34.084
34.941,33.981
35.24,33.882
35.55,33.787
35.865,33.695
36.183,33.607
36.498,33.521
36.809,33.438
37.111,33.357
37.401,33.28
37.677,33.207
37.937,33.137
38.179,33.072
38.401,33.011
38.603,32.955
38.782,32.904
38.94,32.858
39.074,32.818
39.184,32.781
39.271,32.749
39.335,32.72
39.375,32.695
39.393,32.671
39.39,32.65
39.365,32.631
39.322,32.613
39.261,32.598
39.184,32.583
39.093,32.569
38.988,32.554
38.874,32.54
38.75,32.526
38.612,32.511
38.462,32.494
38.305,32.477
38.146,32.458
37.987,32.438
37.834,32.417
37.689,32.395
37.554,32.372
37.431,32.347
37.32,32.323
37.219,32.297
37.13,32.272
37.049,32.246
36.975,32.22
36.907,32.193
36.844,32.164
36.782,32.136
36.721,32.108
36.659,32.08
36.595,32.053
36.529,32.027
36.459,32.003
36.386,31.981
36.311,31.962
36.234,31.946
36.158,31.934
36.082,31.926
36.009,31.924
35.939,31.93
35.873,31.947
35.814,31.979
35.763,32.031
35.719,32.11
35.686,32.221
35.663,32.371
35.65,32.566
35.647,32.808
35.653,33.099
35.668,33.439
35.69,33.825
35.716,34.252
35.747,34.716
35.78,35.207
35.814,35.718
35.849,36.24
35.884,36.763
35.917,37.278
35.947,37.777
35.975,38.252
36,38.699
36.021,39.111
36.037,39.487
36.048,39.825
36.054,40.13
36.054,40.404
36.049,40.645
36.037,40.852
36.02,41.023
35.997,41.157
35.968,41.253
35.934,41.311
35.896,41.333
35.852,41.32
35.805,41.274
35.753,41.199
35.697,41.097
35.638,40.974
35.575,40.831
35.508,40.672
35.439,40.501
35.367,40.321
35.294,40.133
35.218,39.939
35.141,39.742
35.063,39.543
34.986,39.343
34.909,39.144
34.835,38.947
34.762,38.752
34.692,38.562
34.624,38.377
34.557,38.196
34.492,38.021
34.43,37.851
34.369,37.684
34.309,37.522
34.25,37.364
34.193,37.21
34.138,37.059
34.085,36.913
34.035,36.77
33.988,36.631
33.944,36.496
33.905,36.366
33.868,36.242
33.835,36.125
33.803,36.015
33.772,35.912
33.743,35.818
33.715,35.734
33.688,35.661
33.661,35.602
33.635,35.556
33.61,35.525
33.584,35.509
33.558,35.507
33.531,35.519
33.505,35.544
33.481,35.581
33.457,35.628
33.435,35.685
33.413,35.749
33.393,35.819
33.372,35.894
33.352,35.972
33.333,36.053
33.316,36.134
33.3,36.213
33.285,36.288
33.271,36.358
33.257,36.421
33.242,36.477
33.225,36.522
33.207,36.557
33.188,36.581
33.166,36.593
33.144,36.594
33.121,36.585
33.096,36.566
33.069,36.537
33.041,36.499
33.013,36.452
32.984,36.395
32.956,36.329
32.929,36.253
32.904,36.17
32.88,36.079
32.856,35.981
32.834,35.876
32.814,35.766
32.795,35.651
32.779,35.533
32.766,35.411
32.756,35.287
32.752,35.163
32.754,35.038
32.764,34.914
32.785,34.793
32.82,34.674
32.871,34.558
32.943,34.445
33.039,34.336
33.16,34.231
33.308,34.129
33.484,34.031
33.688,33.937
33.919,33.847
34.174,33.762
34.452,33.681
34.746,33.605
35.053,33.534
35.367,33.467
35.684,33.405
35.999,33.345
36.308,33.289
36.606,33.234
36.892,33.18
37.16,33.128
37.409,33.079
37.637,33.031
37.844,32.988
38.03,32.948
38.196,32.911
38.34,32.879
38.464,32.851
38.568,32.827
38.651,32.805
38.715,32.786
38.76,32.768
38.785,32.75
38.793,32.733
38.785,32.716
38.761,32.7
38.722,32.683
38.67,32.666
38.605,32.648
38.528,32.628
38.44,32.608
38.343,32.586
38.237,32.563
38.126,32.541
38.01,32.52
37.89,32.5
37.771,32.479
37.652,32.459
37.535,32.438
37.421,32.416
37.31,32.394
37.202,32.37
37.096,32.344
36.991,32.316
36.888,32.286
36.786,32.255
36.684,32.223
36.583,32.191
36.482,32.16
36.381,32.131
36.281,32.104
36.183,32.079
36.088,32.056
35.996,32.037
35.907,32.022
35.822,32.012
35.74,32.009
35.662,32.016
35.589,32.036
35.521,32.072
35.461,32.129
35.407,32.212
35.361,32.327
35.323,32.48
35.293,32.674
35.271,32.914
35.258,33.2
35.254,33.532
35.257,33.908
35.268,34.323
35.285,34.772
35.308,35.248
35.335,35.741
35.366,36.245
35.401,36.75
35.44,37.249
35.481,37.734
35.523,38.199
35.565,38.638
35.605,39.046
35.643,39.422
35.678,39.761
35.708,40.062
35.733,40.326
35.751,40.551
35.762,40.738
35.767,40.888
35.766,41.003
35.758,41.083
35.745,41.132
35.727,41.152
35.702,41.143
35.673,41.108
35.637,41.048
35.597,40.967
35.551,40.865
35.5,40.747
35.445,40.614
35.386,40.468
35.324,40.311
35.26,40.146
35.193,39.973
35.125,39.796
35.056,39.615
34.988,39.432
34.921,39.249
34.855,39.066
34.789,38.884
34.723,38.702
34.657,38.523
34.592,38.348
34.527,38.176
34.462,38.009
34.398,37.845
34.335,37.685
34.273,37.529
34.213,37.376
34.154,37.226
34.098,37.079
34.043,36.934
33.991,36.792
33.94,36.653
33.892,36.519
33.846,36.39
33.802,36.268
33.76,36.153
33.721,36.047
33.685,35.951
33.653,35.864
33.624,35.789
33.599,35.727
33.578,35.677
33.559,35.641
33.542,35.618
33.527,35.61
33.512,35.615
33.498,35.636
33.484,35.67
33.471,35.715
33.459,35.772
33.447,35.838
33.434,35.911
33.422,35.992
33.409,36.077
33.396,36.164
33.382,36.252
33.368,36.338
33.354,36.419
33.34,36.493
33.325,36.56
33.309,36.617
33.293,36.665
33.277,36.702
33.262,36.727
33.25,36.74
33.241,36.742
33.233,36.733
33.226,36.713
33.219,36.683
33.213,36.644
33.206,36.596
33.2,36.54
33.195,36.475
33.188,36.401
33.181,36.32
33.172,36.231
33.162,36.135
33.152,36.034
33.141,35.927
33.132,35.815
33.125,35.699
33.122,35.58
33.125,35.458
33.133,35.334
33.152,35.208
33.181,35.083
33.225,34.958
33.286,34.834
33.367,34.711
33.469,34.59
33.596,34.472
33.747,34.357
33.922,34.246
34.12,34.139
34.34,34.036
34.58,33.937
34.837,33.842
35.108,33.752
35.388,33.667
35.673,33.586
35.958,33.51
36.24,33.44
36.514,33.375
36.779,33.315
37.03,33.26
37.265,33.21
37.481,33.163
37.678,33.121
37.854,33.081
38.009,33.045
38.142,33.012
38.256,32.981
38.35,32.953
38.425,32.927
38.484,32.903
38.525,32.88
38.551,32.858
38.561,32.838
38.555,32.818
38.534,32.8
38.498,32.782
38.447,32.765
38.384,32.747
38.31,32.73
38.226,32.712
38.135,32.695
38.036,32.677
37.932,32.659
37.825,32.642
37.714,32.624
37.602,32.607
37.488,32.589
37.375,32.571
37.261,32.551
37.148,32.531
37.035,32.51
36.923,32.489
36.811,32.468
36.7,32.446
36.591,32.424
36.482,32.4
36.375,32.376
36.27,32.35
36.166,32.323
36.064,32.293
35.965,32.261
35.868,32.228
35.774,32.194
35.683,32.159
35.593,32.126
35.498,32.094
35.399,32.065
35.3,32.041
35.202,32.024
35.111,32.019
35.029,32.029
34.96,32.058
34.906,32.109
34.869,32.189
34.849,32.302
34.846,32.453
34.86,32.645
34.888,32.882
34.93,33.165
34.981,33.493
35.042,33.865
35.107,34.276
35.176,34.719
35.244,35.189
35.311,35.676
35.376,36.171
35.437,36.667
35.494,37.154
35.546,37.626
35.591,38.076
35.629,38.5
35.66,38.894
35.683,39.255
35.701,39.581
35.711,39.871
35.715,40.125
35.711,40.342
35.698,40.523
35.678,40.669
35.649,40.781
35.613,40.861
35.57,40.91
35.522,40.93
35.47,40.925
35.414,40.895
35.357,40.843
35.3,40.771
35.241,40.68
35.182,40.572
35.122,40.449
35.062,40.313
35.003,40.166
34.942,40.009
34.881,39.845
34.82,39.674
34.758,39.498
34.697,39.318
34.636,39.137
34.576,38.954
34.517,38.774
34.458,38.595
34.398,38.419
34.34,38.246
34.282,38.077
34.225,37.911
34.171,37.748
34.119,37.588
34.068,37.431
34.021,37.278
33.975,37.126
33.931,36.975
33.885,36.827
33.835,36.68
33.781,36.537
33.724,36.399
33.665,36.267
33.608,36.14
33.555,36.021
33.506,35.91
33.463,35.809
33.427,35.72
33.397,35.643
33.375,35.579
33.359,35.53
33.35,35.495
33.346,35.475
33.345,35.471
33.348,35.48
33.353,35.504
33.359,35.541
33.364,35.59
33.368,35.649
33.369,35.717
33.368,35.793
33.363,35.873
33.355,35.958
33.344,36.044
33.331,36.13
33.315,36.215
33.299,36.296
33.28,36.373
33.261,36.444
33.241,36.509
33.221,36.565
33.2,36.612
33.178,36.649
33.156,36.674
33.132,36.687
33.108,36.686
33.085,36.67
33.061,36.641
33.038,36.597
33.016,36.542
32.996,36.475
32.978,36.399
32.964,36.313
32.953,36.219
32.946,36.12
32.943,36.015
32.946,35.907
32.957,35.794
32.978,35.678
33.012,35.56
33.06,35.44
33.127,35.318
33.215,35.192
33.326,35.065
33.464,34.937
33.629,34.809
33.822,34.683
34.044,34.56
34.293,34.441
34.566,34.327
34.86,34.219
35.171,34.116
35.493,34.019
35.822,33.927
36.153,33.842
36.482,33.762
36.804,33.688
37.115,33.619
37.411,33.555
37.69,33.495
37.95,33.439
38.189,33.386
38.406,33.336
38.6,33.287
38.772,33.239
38.92,33.193
39.047,33.15
39.151,33.11
39.234,33.073
39.295,33.039
39.335,33.009
39.355,32.981
39.356,32.955
39.34,32.933
39.307,32.912
39.261,32.893
39.201,32.873
39.131,32.854
39.05,32.833
38.962,32.811
38.866,32.789
38.764,32.765
38.656,32.74
38.545,32.714
38.432,32.688
38.317,32.663
38.2,32.641
38.083,32.62
37.967,32.602
37.853,32.585
37.741,32.571
37.632,32.56
37.525,32.552
37.42,32.545
37.317,32.538
37.216,32.532
37.117,32.524
37.021,32.515
36.927,32.503
36.836,32.487
36.746,32.467
36.658,32.442
36.571,32.413
36.484,32.38
36.399,32.346
36.317,32.31
36.237,32.273
36.162,32.236
36.09,32.2
36.022,32.167
35.96,32.135
35.904,32.106
35.854,32.08
35.81,32.059
35.774,32.041
35.745,32.03
35.723,32.025
35.707,32.032
35.699,32.053
35.698,32.095
35.703,32.163
35.713,32.263
35.727,32.4
35.745,32.578
35.766,32.802
35.79,33.074
35.817,33.393
35.845,33.758
35.873,34.164
35.901,34.606
35.927,35.076
35.949,35.565
35.968,36.065
35.982,36.566
35.991,37.06
35.997,37.54
35.999,37.997
35.997,38.427
35.99,38.824
35.979,39.185
35.963,39.509
35.943,39.795
35.918,40.043
35.889,40.254
35.855,40.429
35.816,40.571
35.77,40.68
35.719,40.758
35.662,40.806
35.599,40.825
35.531,40.818
35.458,40.787
35.38,40.733
35.301,40.657
35.221,40.561
35.142,40.447
35.064,40.318
34.987,40.176
34.912,40.023
34.838,39.863
34.765,39.696
34.694,39.525
34.624,39.351
34.555,39.174
34.487,38.996
34.42,38.819
34.355,38.643
34.292,38.47
34.233,38.3
34.177,38.133
34.123,37.97
34.072,37.809
34.024,37.651
33.978,37.495
33.935,37.342
33.894,37.192
33.855,37.042
33.82,36.894
33.787,36.75
33.756,36.608
33.729,36.471
33.703,36.338
33.679,36.21
33.656,36.088
33.633,35.971
33.611,35.862
33.589,35.763
33.564,35.674
33.538,35.597
33.51,35.533
33.482,35.484
33.454,35.45
33.427,35.431
33.403,35.429
33.381,35.443
33.361,35.473
33.343,35.519
33.327,35.579
33.312,35.652
33.298,35.734
33.285,35.825
33.273,35.921
33.26,36.019
33.247,36.118
33.234,36.215
33.221,36.309
33.206,36.397
33.19,36.478
33.173,36.551
33.154,36.614
33.132,36.668
33.11,36.712
33.086,36.744
33.062,36.764
33.04,36.771
33.019,36.765
33.002,36.745
32.991,36.712
32.987,36.665
32.994,36.605
33.012,36.534
33.045,36.451
33.097,36.359
33.168,36.26
33.263,36.153
33.382,36.04
33.528,35.922
33.7,35.799
33.9,35.673
34.127,35.543
34.379,35.411
34.654,35.277
34.947,35.144
35.254,35.013
35.571,34.883
35.893,34.757
36.217,34.634
36.538,34.515
36.854,34.4
37.16,34.29
37.455,34.185
37.735,34.084
38,33.987
38.247,33.895
38.475,33.807
38.682,33.724
38.868,33.645
39.032,33.571
39.173,33.502
39.29,33.437
39.384,33.376
39.453,33.319
39.499,33.267
39.52,33.218
39.519,33.174
39.496,33.133
39.453,33.096
39.392,33.062
39.315,33.031
39.223,33.003
39.12,32.975
39.008,32.947
38.889,32.918
38.766,32.889
38.64,32.86
38.515,32.831
38.39,32.801
38.268,32.771
38.148,32.741
38.031,32.711
37.918,32.682
37.808,32.655
37.7,32.628
37.595,32.604
37.493,32.58
37.393,32.559
37.295,32.539
37.197,32.521
37.1,32.503
37.003,32.486
36.906,32.47
36.811,32.453
36.717,32.435
36.624,32.416
36.532,32.397
36.442,32.376
36.354,32.354
36.27,32.331
36.19,32.305
36.114,32.278
36.043,32.249
35.977,32.219
35.917,32.188
35.862,32.159
35.812,32.139
35.769,32.128
35.732,32.125
35.703,32.126
35.681,32.13
35.667,32.132
35.66,32.132
35.66,32.127
35.667,32.117
35.679,32.104
35.697,32.088
35.719,32.072
35.745,32.063
35.773,32.066
35.804,32.087
35.834,32.132
35.864,32.21
35.893,32.326
35.919,32.486
35.943,32.694
35.962,32.953
35.977,33.263
35.987,33.621
35.992,34.025
35.992,34.468
35.986,34.941
35.974,35.437
35.957,35.945
35.935,36.454
35.907,36.956
35.874,37.44
35.836,37.899
35.795,38.327
35.748,38.72
35.697,39.076
35.64,39.391
35.578,39.666
35.511,39.9
35.439,40.094
35.363,40.25
35.284,40.369
35.204,40.452
35.123,40.504
35.042,40.524
34.962,40.517
34.885,40.484
34.811,40.427
34.741,40.349
34.672,40.252
34.606,40.138
34.543,40.011
34.482,39.87
34.422,39.719
34.364,39.558
34.308,39.389
34.254,39.216
34.2,39.039
34.147,38.861
34.094,38.68
34.041,38.499
33.989,38.314
33.938,38.125
33.89,37.933
33.845,37.741
33.804,37.55
33.766,37.363
33.731,37.182
33.7,37.008
33.672,36.842
33.647,36.685
33.622,36.535
33.598,36.393
33.575,36.257
33.552,36.127
33.53,36.001
33.508,35.88
33.486,35.762
33.466,35.648
33.447,35.538
33.429,35.434
33.413,35.336
33.397,35.246
33.38,35.165
33.364,35.094
33.349,35.035
33.334,34.989
33.318,34.957
33.302,34.94
33.285,34.939
33.266,34.953
33.246,34.982
33.225,35.024
33.203,35.08
33.18,35.149
33.157,35.23
33.133,35.321
33.11,35.421
33.086,35.528
33.063,35.639
33.04,35.753
33.017,35.866
32.993,35.975
32.97,36.078
32.948,36.171
32.927,36.253
32.908,36.323
32.89,36.379
32.873,36.419
32.859,36.445
32.849,36.454
32.843,36.448
32.843,36.426
32.853,36.389
32.873,36.338
32.906,36.275
32.956,36.201
33.025,36.118
33.116,36.028
33.231,35.933
33.373,35.834
33.543,35.731
33.741,35.626
33.968,35.518
34.222,35.407
34.5,35.295
34.801,35.181
35.119,35.065
35.451,34.948
35.791,34.831
36.135,34.714
36.477,34.598
36.813,34.485
37.139,34.374
37.45,34.266
37.745,34.162
38.02,34.062
38.272,33.966
38.499,33.875
38.701,33.787
38.875,33.705
39.023,33.627
39.145,33.555
39.241,33.488
39.311,33.426
39.356,33.367
39.376,33.311
39.374,33.258
39.352,33.206
39.311,33.158
39.253,33.112
39.181,33.068
39.097,33.027
39.003,32.989
38.901,32.954
38.794,32.922
38.682,32.892
38.566,32.866
38.447,32.841
38.327,32.817
38.207,32.795
38.088,32.773
37.972,32.753
37.86,32.734
37.75,32.716
37.644,32.698
37.541,32.682
37.441,32.667
37.344,32.654
37.25,32.643
37.159,32.632
37.069,32.622
36.981,32.612
36.893,32.602
36.805,32.59
36.717,32.577
36.628,32.562
36.539,32.544
36.45,32.524
36.363,32.5
36.276,32.472
36.191,32.439
36.107,32.403
36.026,32.366
35.949,32.327
35.877,32.288
35.81,32.249
35.749,32.212
35.696,32.176
35.649,32.144
35.61,32.115
35.578,32.09
35.555,32.069
35.537,32.052
35.526,32.042
35.521,32.038
35.522,32.044
35.528,32.06
35.539,32.089
35.556,32.134
35.578,32.199
35.605,32.288
35.636,32.406
35.669,32.556
35.703,32.742
35.737,32.968
35.769,33.235
35.798,33.543
35.823,33.892
35.844,34.278
35.86,34.696
35.87,35.14
35.874,35.602
35.872,36.075
35.864,36.55
35.85,37.019
35.831,37.476
35.806,37.914
35.776,38.327
35.739,38.709
35.696,39.056
35.647,39.365
35.592,39.635
35.531,39.866
35.466,40.057
35.396,40.211
35.321,40.33
35.242,40.416
35.16,40.469
35.076,40.492
34.991,40.489
34.908,40.461
34.827,40.411
34.748,40.344
34.672,40.259
34.598,40.158
34.527,40.041
34.459,39.91
34.395,39.766
34.333,39.611
34.274,39.447
34.217,39.276
34.163,39.101
34.111,38.923
34.061,38.743
34.012,38.563
33.965,38.383
33.92,38.203
33.878,38.023
33.837,37.844
33.797,37.665
33.759,37.485
33.722,37.304
33.685,37.124
33.649,36.944
33.614,36.766
33.58,36.59
33.547,36.416
33.515,36.246
33.485,36.079
33.456,35.917
33.429,35.761
33.403,35.613
33.38,35.473
33.358,35.343
33.337,35.225
33.318,35.12
33.301,35.031
33.284,34.957
33.269,34.899
33.254,34.858
33.24,34.834
33.226,34.827
33.212,34.838
33.199,34.864
33.186,34.907
33.173,34.964
33.158,35.034
33.142,35.117
33.125,35.209
33.109,35.31
33.092,35.417
33.076,35.529
33.062,35.644
33.046,35.761
33.03,35.876
33.013,35.988
32.995,36.093
32.975,36.19
32.955,36.276
32.935,36.35
32.916,36.41
32.898,36.456
32.88,36.488
32.863,36.505
32.845,36.507
32.828,36.494
32.81,36.465
32.792,36.421
32.775,36.364
32.759,36.296
32.745,36.216
32.733,36.128
32.726,36.031
32.723,35.927
32.728,35.817
32.741,35.701
32.767,35.579
32.808,35.454
32.867,35.327
32.947,35.196
33.052,35.065
33.185,34.933
33.348,34.802
33.541,34.673
33.767,34.548
34.021,34.426
34.303,34.309
34.608,34.198
34.932,34.091
35.269,33.989
35.615,33.891
35.964,33.797
36.312,33.707
36.653,33.62
36.982,33.537
37.295,33.457
37.589,33.381
37.86,33.308
38.105,33.239
38.323,33.173
38.512,33.112
38.672,33.056
38.803,33.004
38.905,32.957
38.98,32.915
39.029,32.876
39.053,32.841
39.055,32.809
39.036,32.781
39,32.755
38.948,32.732
38.884,32.709
38.809,32.689
38.725,32.67
38.634,32.653
38.537,32.637
38.436,32.622
38.333,32.607
38.228,32.591
38.121,32.576
38.013,32.56
37.904,32.543
37.794,32.524
37.684,32.503
37.574,32.481
37.464,32.458
37.356,32.434
37.249,32.411
37.143,32.389
37.04,32.369
36.938,32.352
36.838,32.336
36.739,32.32
36.641,32.304
36.544,32.287
36.448,32.269
36.351,32.25
36.254,32.229
36.158,32.206
36.062,32.181
35.967,32.155
35.873,32.129
35.782,32.104
35.695,32.079
35.612,32.056
35.535,32.036
35.463,32.019
35.396,32.007
35.336,32
35.284,32
35.24,32.009
35.205,32.031
35.178,32.067
35.16,32.123
35.15,32.204
35.15,32.314
35.158,32.459
35.174,32.643
35.195,32.87
35.218,33.141
35.242,33.456
35.268,33.816
35.295,34.215
35.323,34.649
35.352,35.111
35.381,35.595
35.411,36.09
35.442,36.591
35.474,37.088
35.505,37.573
35.535,38.038
35.561,38.478
35.584,38.886
35.601,39.259
35.612,39.592
35.615,39.884
35.611,40.136
35.597,40.347
35.576,40.518
35.547,40.651
35.509,40.749
35.463,40.812
35.409,40.844
35.348,40.848
35.281,40.828
35.21,40.785
35.135,40.723
35.057,40.642
34.979,40.546
34.902,40.435
34.825,40.313
34.749,40.18
34.676,40.037
34.605,39.887
34.536,39.73
34.469,39.566
34.403,39.398
34.338,39.228
34.273,39.055
34.208,38.882
34.142,38.71
34.076,38.54
34.01,38.37
33.945,38.203
33.88,38.037
33.817,37.871
33.757,37.707
33.699,37.543
33.646,37.38
33.595,37.216
33.547,37.054
33.503,36.894
33.462,36.737
33.423,36.583
33.386,36.434
33.35,36.291
33.317,36.155
33.286,36.028
33.256,35.911
33.228,35.806
33.201,35.713
33.176,35.633
33.154,35.567
33.135,35.517
33.12,35.48
33.107,35.458
33.096,35.449
33.087,35.453
33.078,35.47
33.07,35.5
33.061,35.542
33.052,35.597
33.04,35.663
33.027,35.739
33.012,35.823
32.996,35.912
32.977,36.005
32.957,36.1
32.936,36.196
32.915,36.29
32.893,36.382
32.871,36.468
32.849,36.546
32.828,36.616
32.808,36.675
32.789,36.721
32.771,36.755
32.755,36.775
32.74,36.781
32.728,36.774
32.715,36.752
32.703,36.717
32.691,36.669
32.678,36.608
32.664,36.537
32.653,36.455
32.651,36.364
32.66,36.264
