Trial 3:3back,Trial 5:3back
43.51,33.23
43.659,33.237
43.756,33.245
43.806,33.255
43.813,33.267
43.783,33.286
43.722,33.313
43.635,33.356
43.526,33.42
43.399,33.509
43.26,33.631
43.112,33.789
42.959,33.988
42.802,34.232
42.644,34.52
42.486,34.853
42.33,35.227
42.175,35.636
42.024,36.075
41.876,36.538
41.732,37.017
41.592,37.505
41.457,37.997
41.326,38.484
41.198,38.961
41.074,39.421
40.951,39.859
40.83,40.269
40.708,40.647
40.588,40.988
40.467,41.292
40.349,41.556
40.231,41.782
40.114,41.969
39.999,42.119
39.884,42.234
39.772,42.317
39.662,42.368
39.553,42.383
39.444,42.366
39.335,42.32
39.223,42.252
39.109,42.168
38.992,42.074
38.873,41.976
38.753,41.878
38.631,41.782
38.509,41.69
38.391,41.603
38.276,41.523
38.168,41.449
38.067,41.382
37.975,41.319
37.892,41.261
37.819,41.205
37.757,41.15
37.705,41.096
37.665,41.04
37.634,40.983
37.613,40.923
37.599,40.861
37.59,40.799
37.585,40.735
37.583,40.669
37.583,40.599
37.585,40.525
37.586,40.446
37.585,40.36
37.582,40.268
37.575,40.17
37.566,40.066
37.555,39.956
37.541,39.84
37.525,39.719
37.506,39.594
37.486,39.464
37.463,39.331
37.437,39.197
37.407,39.064
37.372,38.933
37.332,38.805
37.286,38.683
37.233,38.566
37.173,38.456
37.106,38.354
37.032,38.26
36.95,38.173
36.861,38.092
36.767,38.016
36.669,37.945
36.569,37.876
36.468,37.81
36.366,37.747
36.264,37.685
36.163,37.626
36.062,37.571
35.961,37.52
35.861,37.474
35.762,37.433
35.665,37.397
35.569,37.366
35.474,37.34
35.378,37.319
35.281,37.302
35.184,37.289
35.086,37.279
34.989,37.271
34.893,37.264
34.798,37.258
34.703,37.25
34.61,37.238
34.518,37.223
34.428,37.202
34.338,37.177
34.248,37.147
34.156,37.112
34.064,37.073
33.97,37.029
33.876,36.982
33.783,36.932
33.691,36.88
33.601,36.826
33.515,36.77
33.433,36.713
33.355,36.654
33.28,36.595
33.21,36.534
33.144,36.471
33.082,36.404
33.023,36.334
32.967,36.259
32.912,36.18
32.858,36.097
32.805,36.01
32.754,35.919
32.703,35.825
32.655,35.729
32.608,35.632
32.562,35.535
32.518,35.44
32.476,35.347
32.435,35.256
32.394,35.168
32.354,35.085
32.314,35.005
32.273,34.927
32.231,34.852
32.19,34.778
32.15,34.706
32.113,34.635
32.081,34.565
32.053,34.494
32.029,34.424
32.01,34.354
31.993,34.285
31.98,34.218
31.971,34.151
31.966,34.085
31.965,34.018
31.965,33.953
31.968,33.889
31.971,33.826
31.974,33.763
31.976,33.699
31.975,33.635
31.97,33.569
31.96,33.505
31.946,33.442
31.929,33.38
31.908,33.323
31.885,33.27
31.858,33.222
31.828,33.18
31.796,33.144
31.761,33.112
31.725,33.084
31.689,33.059
31.654,33.037
31.621,33.016
31.589,32.994
31.56,32.971
31.534,32.946
31.513,32.918
31.496,32.888
31.486,32.855
31.483,32.82
31.489,32.785
31.51,32.752
31.55,32.725
31.617,32.705
31.716,32.696
31.855,32.701
32.044,32.724
32.288,32.769
32.595,32.838
32.969,32.936
33.41,33.065
33.916,33.227
34.481,33.423
35.099,33.653
35.759,33.916
36.45,34.212
37.159,34.537
37.872,34.888
38.577,35.264
39.262,35.659
39.915,36.071
40.527,36.493
41.088,36.919
41.593,37.343
42.037,37.758
42.418,38.159
42.735,38.54
42.99,38.895
43.186,39.22
43.327,39.512
43.419,39.77
43.467,39.993
43.478,40.18
43.455,40.332
43.404,40.45
43.326,40.535
43.226,40.59
43.109,40.618
42.977,40.62
42.834,40.6
42.686,40.56
42.534,40.503
42.382,40.434
42.233,40.354
42.088,40.266
41.947,40.17
41.81,40.069
41.677,39.963
41.546,39.855
41.416,39.747
41.286,39.64
41.157,39.535
41.027,39.431
40.899,39.331
40.773,39.234
40.651,39.141
40.532,39.051
40.415,38.965
40.302,38.88
40.19,38.797
40.079,38.716
39.971,38.635
39.865,38.554
39.759,38.474
39.653,38.393
39.543,38.313
39.428,38.233
39.308,38.153
39.182,38.074
39.05,37.995
38.912,37.915
38.771,37.835
38.626,37.754
38.479,37.672
38.333,37.588
38.187,37.501
38.046,37.41
37.91,37.316
37.782,37.217
37.665,37.114
37.561,37.007
37.469,36.896
37.392,36.784
37.33,36.673
37.282,36.564
37.249,36.46
37.23,36.362
37.221,36.271
37.222,36.188
37.23,36.114
37.243,36.048
37.257,35.989
37.272,35.938
37.283,35.893
37.289,35.856
37.291,35.826
37.286,35.805
37.277,35.791
37.261,35.784
37.239,35.783
37.212,35.786
37.179,35.793
37.142,35.802
37.1,35.812
37.054,35.822
37.004,35.83
36.949,35.836
36.889,35.839
36.823,35.839
36.751,35.835
36.673,35.826
36.589,35.815
36.501,35.801
36.409,35.787
36.314,35.77
36.217,35.752
36.119,35.731
36.02,35.707
35.921,35.679
35.823,35.646
35.726,35.607
35.63,35.563
35.535,35.512
35.44,35.457
35.346,35.398
35.254,35.335
35.161,35.268
35.069,35.199
34.977,35.127
34.884,35.052
34.792,34.976
34.699,34.898
34.605,34.819
34.51,34.738
34.415,34.656
34.319,34.576
34.223,34.502
34.128,34.434
34.032,34.372
33.937,34.313
33.844,34.258
33.753,34.202
33.666,34.144
33.584,34.082
33.505,34.013
33.431,33.939
33.36,33.858
33.292,33.773
33.226,33.683
33.163,33.592
33.1,33.5
33.038,33.408
32.976,33.319
32.914,33.233
32.85,33.15
32.786,33.071
32.722,32.996
32.659,32.925
32.598,32.859
32.538,32.797
32.479,32.738
32.421,32.684
32.364,32.633
32.307,32.587
32.25,32.546
32.193,32.508
32.136,32.472
32.081,32.438
32.028,32.403
31.978,32.368
31.932,32.332
31.889,32.295
31.85,32.256
31.814,32.216
31.78,32.178
31.747,32.143
31.717,32.11
31.688,32.081
31.66,32.056
31.634,32.036
31.61,32.021
31.589,32.011
31.572,32.006
31.558,32.003
31.549,32.002
31.543,32.002
31.539,32.001
31.538,32
31.539,31.997
31.541,31.993
31.544,31.988
31.547,31.982
31.547,31.975
31.546,31.968
31.543,31.962
31.54,31.956
31.535,31.952
31.53,31.95
31.524,31.95
31.517,31.951
31.509,31.951
31.5,31.948
31.489,31.944
31.476,31.936
31.461,31.925
31.443,31.912
31.423,31.896
31.401,31.879
31.38,31.86
31.36,31.841
31.343,31.823
31.331,31.809
31.326,31.799
31.331,31.798
31.35,31.807
31.388,31.831
31.451,31.872
31.548,31.933
31.687,32.02
31.877,32.136
32.125,32.285
32.438,32.469
32.821,32.69
33.276,32.947
33.801,33.239
34.391,33.561
35.037,33.91
35.726,34.281
36.445,34.668
37.18,35.068
37.914,35.474
38.636,35.88
39.332,36.279
39.989,36.661
40.597,37.02
41.149,37.35
41.638,37.646
42.062,37.904
42.418,38.122
42.707,38.3
42.93,38.437
43.092,38.538
43.197,38.604
43.249,38.641
43.255,38.655
43.221,38.647
43.153,38.622
43.058,38.583
42.941,38.532
42.807,38.474
42.663,38.409
42.51,38.341
42.354,38.272
42.195,38.202
42.036,38.133
41.877,38.064
41.718,37.997
41.558,37.929
41.396,37.86
41.234,37.791
41.072,37.721
40.909,37.65
40.748,37.58
40.589,37.51
40.433,37.44
40.281,37.372
40.134,37.305
39.992,37.239
39.856,37.177
39.724,37.116
39.597,37.059
39.473,37.003
39.351,36.949
39.229,36.896
39.106,36.843
38.98,36.787
38.851,36.727
38.719,36.663
38.584,36.593
38.447,36.519
38.31,36.442
38.173,36.362
38.036,36.281
37.901,36.201
37.769,36.123
37.64,36.047
37.514,35.974
37.392,35.904
37.275,35.837
37.163,35.774
37.057,35.713
36.958,35.657
36.866,35.603
36.785,35.551
36.715,35.503
36.657,35.457
36.612,35.414
36.579,35.375
36.559,35.339
36.55,35.308
36.551,35.283
36.561,35.263
36.578,35.248
36.601,35.236
36.626,35.227
36.653,35.218
36.68,35.21
36.704,35.203
36.724,35.195
36.738,35.186
36.745,35.175
36.746,35.162
36.741,35.148
36.731,35.133
36.715,35.117
36.696,35.1
36.673,35.083
36.646,35.067
36.615,35.052
36.579,35.038
36.54,35.024
36.497,35.01
36.451,34.992
36.401,34.97
36.345,34.942
36.282,34.908
36.209,34.868
36.127,34.821
36.034,34.77
35.932,34.715
35.822,34.657
35.704,34.596
35.58,34.529
35.451,34.459
35.32,34.385
35.186,34.308
35.052,34.229
34.918,34.149
34.785,34.068
34.653,33.987
34.525,33.908
34.4,33.831
34.278,33.758
34.161,33.691
34.049,33.627
33.939,33.567
33.832,33.511
33.727,33.458
33.624,33.408
33.524,33.358
33.427,33.31
33.333,33.263
33.242,33.217
33.153,33.174
33.067,33.133
32.986,33.093
32.91,33.055
32.838,33.018
32.77,32.983
32.705,32.949
32.643,32.916
32.586,32.885
32.532,32.854
32.483,32.823
32.436,32.792
32.39,32.76
32.345,32.726
32.3,32.691
32.255,32.655
32.211,32.617
32.167,32.58
32.124,32.541
32.08,32.502
32.037,32.462
31.995,32.422
31.954,32.382
31.914,32.345
31.877,32.311
31.842,32.28
31.811,32.251
31.785,32.225
31.762,32.202
31.745,32.181
31.734,32.161
31.729,32.143
31.728,32.125
31.731,32.109
31.739,32.092
31.75,32.076
31.764,32.059
31.781,32.042
31.798,32.027
31.814,32.013
31.826,32.001
31.836,31.991
31.843,31.982
31.847,31.975
31.848,31.967
31.847,31.959
31.843,31.95
31.837,31.939
31.827,31.928
31.815,31.915
31.795,31.9
31.764,31.883
31.724,31.862
31.678,31.839
31.628,31.814
31.577,31.788
31.529,31.762
31.484,31.735
31.446,31.707
31.414,31.678
31.391,31.649
31.377,31.621
31.374,31.594
31.381,31.567
31.402,31.543
31.437,31.52
31.493,31.498
31.574,31.476
31.688,31.456
31.843,31.442
32.046,31.441
32.304,31.46
32.623,31.504
33.006,31.58
33.454,31.691
33.966,31.837
34.536,32.021
35.158,32.242
35.818,32.498
36.506,32.787
37.207,33.104
37.907,33.445
38.591,33.804
39.246,34.174
39.861,34.55
40.425,34.925
40.934,35.294
41.381,35.651
41.764,35.991
42.083,36.31
42.341,36.605
42.54,36.871
42.683,37.107
42.778,37.309
42.828,37.477
42.84,37.609
42.82,37.708
42.772,37.773
42.701,37.807
42.612,37.813
42.508,37.795
42.392,37.759
42.263,37.709
42.126,37.648
41.981,37.578
41.831,37.503
41.676,37.424
41.518,37.346
41.358,37.268
41.198,37.192
41.039,37.117
40.881,37.045
40.728,36.974
40.578,36.902
40.433,36.831
40.294,36.758
40.16,36.684
40.031,36.608
39.907,36.533
39.785,36.458
39.666,36.385
39.549,36.315
39.434,36.249
39.319,36.186
39.203,36.128
39.087,36.074
38.97,36.024
38.85,35.978
38.729,35.936
38.606,35.896
38.48,35.858
38.352,35.82
38.223,35.779
38.092,35.734
37.961,35.684
37.829,35.627
37.697,35.564
37.564,35.496
37.433,35.425
37.303,35.35
37.176,35.275
37.054,35.2
36.938,35.127
36.831,35.059
36.734,34.994
36.65,34.934
36.579,34.879
36.523,34.83
36.48,34.787
36.451,34.748
36.434,34.714
36.428,34.683
36.429,34.656
36.437,34.63
36.45,34.608
36.466,34.589
36.484,34.573
36.502,34.561
36.518,34.554
36.532,34.553
36.541,34.556
36.547,34.563
36.548,34.571
36.544,34.58
36.535,34.588
36.519,34.594
36.497,34.595
36.468,34.591
36.433,34.579
36.392,34.56
36.342,34.535
36.284,34.503
36.218,34.465
36.144,34.423
36.061,34.378
35.971,34.331
35.873,34.287
35.769,34.244
35.662,34.205
35.552,34.168
35.44,34.135
35.326,34.104
35.211,34.077
35.095,34.052
34.979,34.029
34.863,34.004
34.748,33.978
34.632,33.947
34.516,33.913
34.4,33.875
34.282,33.833
34.164,33.789
34.047,33.744
33.93,33.699
33.815,33.653
33.702,33.609
33.591,33.567
33.484,33.526
33.381,33.489
33.284,33.455
33.193,33.424
33.108,33.396
33.029,33.369
32.955,33.344
32.886,33.319
32.821,33.293
32.76,33.266
32.702,33.238
32.646,33.208
32.591,33.178
32.538,33.147
32.487,33.115
32.437,33.081
32.389,33.046
32.34,33.01
32.292,32.974
32.244,32.938
32.195,32.902
32.145,32.867
32.095,32.832
32.045,32.797
31.995,32.762
31.944,32.726
31.893,32.69
31.842,32.652
31.792,32.615
31.739,32.576
31.685,32.538
31.63,32.499
31.578,32.461
31.531,32.422
31.49,32.384
31.458,32.348
31.434,32.316
31.419,32.286
31.412,32.261
31.409,32.241
31.411,32.224
31.415,32.211
31.421,32.202
31.428,32.194
31.434,32.187
31.438,32.178
31.439,32.167
31.437,32.152
31.431,32.133
31.421,32.109
31.405,32.082
31.383,32.051
31.355,32.018
31.322,31.984
31.286,31.951
31.249,31.918
31.21,31.887
31.171,31.86
31.132,31.838
31.096,31.823
31.062,31.815
31.031,31.814
31.004,31.82
30.98,31.832
30.958,31.85
30.938,31.871
30.921,31.892
30.904,31.91
30.888,31.925
30.872,31.934
30.858,31.938
30.844,31.937
30.832,31.932
30.821,31.924
30.81,31.914
30.8,31.904
30.79,31.895
30.78,31.887
30.77,31.879
30.762,31.872
30.759,31.868
30.764,31.866
30.781,31.868
30.816,31.873
30.875,31.882
30.967,31.893
31.101,31.906
31.288,31.921
31.535,31.939
31.85,31.958
32.239,31.978
32.702,31.999
33.239,32.023
33.846,32.05
34.515,32.081
35.235,32.119
35.994,32.167
36.775,32.229
37.563,32.308
38.343,32.409
39.099,32.535
39.816,32.69
40.484,32.875
41.092,33.091
41.635,33.34
42.109,33.62
42.512,33.926
42.846,34.256
43.113,34.603
43.316,34.962
43.462,35.326
43.555,35.688
43.603,36.04
43.611,36.377
43.587,36.694
43.536,36.987
43.465,37.254
43.377,37.491
43.276,37.697
43.163,37.87
43.04,38.011
42.91,38.12
42.774,38.198
42.633,38.245
42.489,38.262
42.343,38.254
42.194,38.222
42.046,38.171
41.898,38.104
41.751,38.024
41.606,37.936
41.461,37.843
41.319,37.748
41.178,37.653
41.04,37.559
40.905,37.468
40.774,37.379
40.648,37.295
40.524,37.215
40.404,37.14
40.285,37.071
40.167,37.008
40.049,36.949
39.929,36.894
39.807,36.842
39.684,36.795
39.56,36.752
39.434,36.711
39.306,36.672
39.176,36.636
39.044,36.601
38.909,36.565
38.771,36.529
38.631,36.492
38.489,36.453
38.344,36.413
38.197,36.371
38.05,36.329
37.904,36.286
37.76,36.243
37.62,36.198
37.486,36.152
37.359,36.103
37.241,36.049
37.134,35.99
37.037,35.925
36.952,35.853
36.877,35.777
36.811,35.695
36.755,35.61
36.707,35.523
36.665,35.433
36.629,35.345
36.596,35.258
36.566,35.177
36.538,35.101
36.512,35.034
36.488,34.974
36.466,34.924
36.446,34.882
36.428,34.848
36.411,34.822
36.394,34.801
36.376,34.786
36.357,34.775
36.336,34.768
36.312,34.764
36.284,34.761
36.25,34.759
36.209,34.757
36.162,34.755
36.109,34.751
36.048,34.745
35.98,34.738
35.905,34.729
35.822,34.72
35.732,34.711
35.636,34.701
35.535,34.69
35.43,34.677
35.321,34.662
35.206,34.647
35.087,34.631
34.964,34.614
34.838,34.597
34.712,34.579
34.588,34.561
34.467,34.543
34.352,34.526
34.243,34.509
34.143,34.493
34.049,34.477
33.962,34.462
33.883,34.447
33.81,34.433
33.744,34.416
33.68,34.397
33.618,34.374
33.556,34.347
33.493,34.317
33.429,34.284
33.363,34.249
33.294,34.213
33.224,34.178
33.15,34.142
33.075,34.106
32.997,34.069
32.917,34.031
32.836,33.991
32.754,33.95
32.67,33.908
32.587,33.864
32.503,33.816
32.419,33.764
32.335,33.708
32.252,33.646
32.167,33.581
32.083,33.512
31.999,33.439
31.917,33.363
31.836,33.285
31.757,33.207
31.68,33.129
31.606,33.051
31.533,32.974
31.462,32.9
31.393,32.828
31.327,32.759
31.263,32.695
31.201,32.635
31.141,32.578
31.085,32.524
31.032,32.474
30.984,32.429
30.941,32.388
30.903,32.355
30.87,32.329
30.842,32.314
30.819,32.31
30.803,32.319
30.793,32.337
30.788,32.361
30.789,32.388
30.794,32.415
30.802,32.437
30.813,32.454
30.825,32.461
30.838,32.457
30.851,32.443
30.863,32.419
30.875,32.387
30.884,32.347
30.891,32.302
30.895,32.253
30.894,32.203
30.89,32.153
30.882,32.105
30.87,32.062
30.857,32.025
30.842,31.995
30.826,31.974
30.811,31.963
30.796,31.963
30.782,31.971
30.77,31.988
30.758,32.013
30.748,32.044
30.738,32.082
30.726,32.125
30.711,32.171
30.693,32.216
30.672,32.26
30.648,32.3
30.623,32.336
30.598,32.366
30.575,32.388
30.555,32.404
30.54,32.412
30.531,32.413
30.53,32.407
30.537,32.395
30.556,32.376
30.59,32.353
30.643,32.325
30.722,32.294
30.833,32.262
30.985,32.229
31.188,32.196
31.45,32.163
31.78,32.129
32.182,32.095
32.659,32.061
33.209,32.026
33.826,31.989
34.499,31.95
35.215,31.909
35.961,31.865
36.72,31.818
37.477,31.769
38.218,31.72
38.931,31.673
39.604,31.629
40.226,31.591
40.789,31.561
41.288,31.539
41.72,31.527
42.081,31.527
42.375,31.538
42.601,31.561
42.766,31.594
42.874,31.635
42.931,31.683
42.945,31.736
42.921,31.792
42.865,31.848
42.783,31.903
42.68,31.954
42.561,32.001
42.43,32.04
42.291,32.071
42.145,32.092
41.996,32.104
41.844,32.109
41.691,32.107
41.536,32.1
41.38,32.091
41.222,32.079
41.062,32.067
40.9,32.056
40.737,32.046
40.574,32.04
40.411,32.036
40.25,32.036
40.091,32.039
39.934,32.046
39.781,32.057
39.633,32.07
39.489,32.086
39.352,32.103
39.22,32.12
39.095,32.136
38.974,32.15
38.856,32.158
38.741,32.161
38.626,32.156
38.51,32.145
38.394,32.128
38.277,32.106
38.157,32.079
38.034,32.049
37.908,32.018
37.781,31.988
37.651,31.961
37.52,31.937
37.388,31.919
37.256,31.905
37.125,31.895
36.995,31.891
36.867,31.892
36.741,31.897
36.618,31.905
36.501,31.914
36.39,31.924
36.288,31.935
36.195,31.946
36.112,31.957
36.04,31.967
35.979,31.976
35.931,31.984
35.894,31.991
35.87,31.997
35.857,32.004
35.854,32.01
35.858,32.017
35.867,32.025
35.878,32.033
35.892,32.04
35.907,32.046
35.921,32.048
35.935,32.047
35.947,32.043
35.957,32.036
35.963,32.025
35.965,32.013
35.963,32.001
35.956,31.991
35.943,31.981
35.923,31.975
35.895,31.972
35.858,31.972
35.813,31.977
35.758,31.987
35.694,31.999
35.621,32.015
35.54,32.031
35.45,32.049
35.354,32.066
35.251,32.083
35.144,32.097
35.034,32.108
34.923,32.117
34.811,32.122
34.699,32.123
34.589,32.12
34.479,32.114
34.371,32.103
34.263,32.09
34.156,32.077
34.051,32.063
33.948,32.051
33.847,32.041
33.749,32.033
33.654,32.029
33.563,32.027
33.476,32.029
33.392,32.034
33.311,32.04
33.232,32.048
33.154,32.057
33.077,32.066
33.001,32.074
32.926,32.08
32.852,32.083
32.778,32.081
32.703,32.077
32.63,32.07
32.557,32.061
32.485,32.05
32.414,32.037
32.344,32.023
32.274,32.007
32.205,31.993
32.138,31.98
32.072,31.972
32.008,31.967
31.944,31.967
31.88,31.971
31.817,31.981
31.754,31.996
31.691,32.015
31.627,32.037
31.563,32.06
31.501,32.084
31.441,32.107
31.382,32.128
31.326,32.147
31.273,32.163
31.223,32.177
31.177,32.189
31.133,32.199
31.092,32.204
31.053,32.204
31.016,32.199
30.979,32.189
30.943,32.175
30.906,32.158
30.869,32.137
30.833,32.115
30.797,32.092
30.763,32.071
30.732,32.052
30.702,32.036
30.675,32.024
30.651,32.018
30.63,32.018
30.613,32.025
30.598,32.038
30.588,32.055
30.58,32.076
30.575,32.097
30.573,32.118
30.574,32.137
30.577,32.153
30.581,32.166
30.587,32.174
30.592,32.18
30.598,32.182
30.604,32.181
30.609,32.178
30.615,32.173
30.62,32.167
30.625,32.162
30.63,32.157
30.633,32.151
30.637,32.143
30.639,32.133
30.641,32.12
30.642,32.105
30.642,32.087
30.64,32.067
30.638,32.045
30.635,32.021
30.631,31.998
30.625,31.977
30.619,31.958
30.613,31.941
30.606,31.928
30.6,31.919
30.593,31.914
30.586,31.912
30.58,31.914
30.574,31.916
30.572,31.918
30.574,31.92
30.584,31.919
30.604,31.917
30.64,31.912
30.696,31.907
30.78,31.901
30.901,31.896
31.068,31.894
31.291,31.897
31.577,31.904
31.933,31.916
32.361,31.934
32.861,31.957
33.427,31.985
34.054,32.019
34.729,32.056
35.441,32.099
36.175,32.148
36.914,32.204
37.646,32.269
38.354,32.343
39.027,32.429
39.653,32.529
40.223,32.645
40.73,32.779
41.17,32.932
41.54,33.105
41.842,33.296
42.076,33.506
42.246,33.734
42.356,33.976
42.413,34.23
42.423,34.495
42.393,34.767
42.331,35.044
42.242,35.323
42.132,35.603
42.005,35.88
41.866,36.152
41.719,36.418
41.564,36.677
41.403,36.928
41.239,37.168
41.072,37.397
40.906,37.613
40.742,37.815
40.581,38.001
40.424,38.17
40.271,38.323
40.122,38.46
39.977,38.579
39.835,38.683
39.696,38.77
39.559,38.843
39.423,38.901
39.285,38.945
39.146,38.975
39.004,38.992
38.859,38.998
38.712,38.993
38.564,38.979
38.417,38.957
38.273,38.928
38.133,38.892
37.996,38.852
37.863,38.807
37.732,38.758
37.604,38.705
37.477,38.648
37.351,38.588
37.225,38.525
37.099,38.458
36.973,38.386
36.847,38.31
36.721,38.23
36.598,38.145
36.477,38.057
36.36,37.966
36.25,37.874
36.148,37.781
36.056,37.688
35.974,37.596
35.905,37.507
35.848,37.42
35.804,37.336
35.773,37.254
35.755,37.175
35.748,37.097
35.749,37.021
35.758,36.945
35.772,36.868
35.79,36.792
35.812,36.718
35.838,36.647
35.866,36.581
35.897,36.522
35.93,36.47
35.963,36.424
35.998,36.385
36.033,36.351
36.069,36.322
36.104,36.298
36.137,36.277
36.163,36.26
36.182,36.246
36.191,36.236
36.189,36.231
36.178,36.23
36.157,36.234
36.128,36.241
36.09,36.252
36.045,36.268
35.994,36.286
35.938,36.307
35.878,36.328
35.814,36.349
35.745,36.368
35.672,36.384
35.594,36.395
35.51,36.401
35.421,36.4
35.326,36.393
35.227,36.382
35.124,36.368
35.018,36.352
34.911,36.335
34.804,36.316
34.696,36.297
34.588,36.277
34.481,36.256
34.375,36.232
34.271,36.204
34.169,36.174
34.067,36.142
33.966,36.107
33.865,36.07
33.766,36.033
33.667,35.995
33.569,35.956
33.472,35.918
33.376,35.881
33.281,35.843
33.189,35.804
33.099,35.764
33.012,35.722
32.927,35.679
32.845,35.635
32.765,35.589
32.685,35.54
32.607,35.49
32.529,35.439
32.452,35.388
32.376,35.338
32.301,35.29
32.227,35.243
32.155,35.199
32.085,35.157
32.018,35.117
31.955,35.078
31.895,35.039
31.839,34.999
31.788,34.956
31.74,34.911
31.697,34.864
31.658,34.814
31.623,34.761
31.592,34.706
31.565,34.65
31.54,34.593
31.518,34.538
31.5,34.485
31.485,34.436
31.473,34.391
31.464,34.353
31.456,34.322
31.45,34.298
31.444,34.279
31.439,34.265
31.434,34.253
31.43,34.244
31.426,34.235
31.424,34.225
31.422,34.214
31.423,34.199
31.427,34.182
31.433,34.162
31.441,34.141
31.451,34.12
31.462,34.099
31.473,34.082
31.484,34.068
31.5,34.059
31.525,34.055
31.56,34.056
31.602,34.06
31.649,34.066
31.695,34.075
31.738,34.084
31.773,34.094
31.796,34.102
31.806,34.107
31.801,34.11
31.783,34.111
31.752,34.11
31.709,34.108
31.656,34.106
31.596,34.105
31.531,34.105
31.464,34.109
31.4,34.116
31.341,34.125
31.291,34.136
31.252,34.146
31.226,34.153
31.216,34.158
31.227,34.159
31.262,34.157
31.327,34.151
31.429,34.143
31.575,34.133
31.774,34.122
32.032,34.11
32.355,34.101
32.746,34.097
33.207,34.1
33.733,34.116
34.316,34.146
34.947,34.193
35.613,34.259
36.3,34.346
36.995,34.455
37.684,34.587
38.353,34.743
38.991,34.924
39.585,35.128
40.128,35.353
40.611,35.598
41.031,35.859
41.383,36.132
41.667,36.412
41.885,36.694
42.042,36.972
42.143,37.243
42.193,37.501
42.2,37.745
42.17,37.972
42.107,38.178
42.018,38.361
41.907,38.52
41.778,38.654
41.636,38.761
41.482,38.842
41.322,38.897
41.157,38.927
40.992,38.932
40.829,38.917
40.669,38.883
40.514,38.832
40.364,38.769
40.22,38.697
40.082,38.619
39.949,38.539
39.819,38.459
39.693,38.381
39.569,38.305
39.445,38.232
39.321,38.162
39.196,38.095
39.069,38.031
38.942,37.967
38.815,37.904
38.689,37.84
38.564,37.776
38.442,37.711
38.322,37.644
38.204,37.575
38.088,37.505
37.975,37.434
37.862,37.364
37.75,37.295
37.637,37.226
37.522,37.159
37.403,37.092
37.278,37.026
37.147,36.96
37.011,36.894
36.873,36.828
36.736,36.763
36.602,36.699
36.476,36.635
36.358,36.573
36.251,36.513
36.156,36.452
36.074,36.39
36.004,36.327
35.948,36.264
35.905,36.201
35.873,36.138
35.852,36.076
35.84,36.015
35.838,35.958
35.842,35.904
35.853,35.853
35.869,35.806
35.889,35.763
35.911,35.724
35.935,35.689
35.959,35.66
35.983,35.635
36.006,35.615
36.026,35.6
36.042,35.589
36.052,35.581
36.053,35.578
36.045,35.577
36.027,35.578
36,35.581
35.963,35.587
35.918,35.597
35.864,35.61
35.802,35.625
35.734,35.642
35.66,35.659
35.583,35.676
35.503,35.691
35.421,35.705
35.337,35.717
35.252,35.725
35.165,35.73
35.077,35.732
34.99,35.731
34.903,35.726
34.818,35.718
34.736,35.707
34.655,35.692
34.578,35.674
34.502,35.653
34.428,35.631
34.356,35.607
34.284,35.584
34.211,35.562
34.137,35.541
34.06,35.522
33.98,35.504
33.897,35.488
33.812,35.472
33.724,35.457
33.635,35.441
33.543,35.423
33.45,35.404
33.356,35.38
33.263,35.352
33.172,35.318
33.083,35.28
32.998,35.237
32.916,35.19
32.837,35.14
32.76,35.087
32.686,35.032
32.615,34.978
32.547,34.923
32.483,34.87
32.423,34.817
32.367,34.767
32.316,34.718
32.269,34.674
32.225,34.633
32.184,34.597
32.146,34.564
32.109,34.534
32.073,34.505
32.04,34.478
32.008,34.45
31.977,34.421
31.947,34.391
31.918,34.359
31.888,34.327
31.858,34.295
31.827,34.264
31.795,34.233
31.761,34.205
31.725,34.18
31.687,34.159
31.646,34.14
31.605,34.123
31.563,34.107
31.521,34.091
31.482,34.074
31.446,34.055
31.415,34.033
31.389,34.008
31.368,33.98
31.352,33.951
31.34,33.921
31.331,33.892
31.324,33.865
31.318,33.839
31.313,33.814
31.308,33.792
31.303,33.773
31.297,33.756
31.29,33.742
31.282,33.73
31.272,33.72
31.262,33.711
31.25,33.703
31.237,33.694
31.222,33.684
31.207,33.671
31.192,33.656
31.177,33.638
31.161,33.617
31.143,33.593
31.124,33.566
31.102,33.538
31.079,33.507
31.057,33.475
31.035,33.443
31.013,33.411
30.992,33.381
30.969,33.354
30.945,33.332
30.921,33.315
30.896,33.304
30.872,33.295
30.849,33.287
30.829,33.279
30.813,33.271
30.803,33.263
30.802,33.257
30.811,33.253
30.834,33.254
30.875,33.265
30.939,33.288
31.031,33.328
31.161,33.387
31.336,33.469
31.566,33.576
31.86,33.712
32.223,33.877
32.658,34.073
33.166,34.297
33.742,34.546
34.379,34.818
35.068,35.11
35.794,35.419
36.542,35.74
37.297,36.07
38.042,36.402
38.764,36.732
39.45,37.052
40.091,37.359
40.677,37.646
41.202,37.909
41.659,38.144
42.046,38.349
42.363,38.522
42.612,38.663
42.796,38.773
42.921,38.855
42.992,38.911
43.015,38.946
42.997,38.964
42.944,38.966
42.863,38.954
42.759,38.928
42.637,38.89
42.501,38.84
42.357,38.782
42.205,38.716
42.05,38.646
41.893,38.572
41.736,38.497
41.581,38.421
41.427,38.347
41.275,38.276
41.124,38.208
40.973,38.143
40.821,38.08
40.668,38.021
40.513,37.963
40.357,37.907
40.201,37.853
40.046,37.8
39.893,37.749
39.744,37.699
39.598,37.649
39.457,37.598
39.319,37.546
39.187,37.491
39.059,37.434
38.936,37.374
38.817,37.311
38.699,37.247
38.582,37.181
38.462,37.113
38.341,37.044
38.216,36.975
38.088,36.907
37.956,36.839
37.822,36.77
37.685,36.702
37.548,36.634
37.412,36.566
37.278,36.499
37.148,36.433
37.024,36.368
36.908,36.303
36.8,36.239
36.703,36.175
36.617,36.112
36.541,36.051
36.475,35.992
36.418,35.938
36.368,35.889
36.327,35.849
36.291,35.817
36.262,35.794
36.238,35.779
36.218,35.772
36.203,35.772
36.193,35.778
36.187,35.789
36.187,35.803
36.19,35.82
36.197,35.838
36.205,35.857
36.215,35.875
36.225,35.893
36.234,35.908
36.242,35.919
36.248,35.926
36.252,35.93
36.25,35.931
36.242,35.928
36.228,35.923
36.205,35.916
36.175,35.906
36.136,35.895
36.091,35.881
36.039,35.863
35.983,35.842
35.922,35.817
35.857,35.788
35.788,35.754
35.715,35.717
35.639,35.675
35.561,35.628
35.48,35.578
35.397,35.525
35.311,35.469
35.221,35.412
35.127,35.353
35.028,35.295
34.926,35.239
34.821,35.186
34.713,35.136
34.603,35.09
34.491,35.046
34.379,35.005
34.268,34.965
34.159,34.926
34.051,34.887
33.947,34.846
33.845,34.803
33.747,34.756
33.653,34.708
33.563,34.657
33.478,34.605
33.398,34.553
33.324,34.501
33.255,34.451
33.191,34.406
33.131,34.365
33.074,34.329
33.02,34.297
32.969,34.267
32.918,34.24
32.867,34.214
32.815,34.188
32.76,34.161
32.702,34.133
32.64,34.102
32.576,34.07
32.509,34.037
32.439,34.003
32.369,33.97
32.298,33.938
32.227,33.911
32.155,33.888
32.084,33.869
32.014,33.855
31.945,33.845
31.878,33.836
31.814,33.828
31.754,33.82
31.7,33.812
31.653,33.803
31.611,33.793
31.577,33.782
31.549,33.771
31.528,33.759
31.513,33.745
31.503,33.729
31.498,33.713
31.497,33.695
31.5,33.678
31.505,33.661
31.512,33.646
31.519,33.631
31.528,33.619
31.536,33.608
31.544,33.601
31.552,33.595
31.56,33.592
31.566,33.59
31.57,33.59
31.572,33.59
31.571,33.588
31.563,33.585
31.548,33.578
31.526,33.569
31.499,33.558
31.47,33.547
31.44,33.535
31.412,33.523
31.388,33.51
31.368,33.497
31.354,33.485
31.346,33.476
31.343,33.472
31.345,33.476
31.349,33.489
31.355,33.514
31.36,33.554
31.363,33.612
31.363,33.69
31.359,33.788
31.352,33.91
31.341,34.056
31.329,34.23
31.316,34.431
31.304,34.661
31.297,34.917
31.296,35.199
31.306,35.501
31.331,35.821
31.378,36.152
31.455,36.489
31.57,36.825
31.733,37.155
31.952,37.473
32.235,37.775
32.588,38.057
33.012,38.315
33.505,38.545
34.062,38.746
34.673,38.917
35.328,39.058
36.013,39.17
36.714,39.253
37.416,39.31
38.105,39.341
38.769,39.349
39.396,39.337
39.976,39.309
40.502,39.267
40.968,39.214
41.369,39.153
41.704,39.086
41.974,39.015
42.181,38.94
42.328,38.863
42.421,38.783
42.463,38.702
42.462,38.619
42.425,38.536
42.356,38.453
42.262,38.369
42.148,38.285
42.019,38.201
41.88,38.118
41.734,38.037
41.585,37.957
41.433,37.878
41.279,37.801
41.123,37.724
40.966,37.647
40.808,37.57
40.651,37.49
40.495,37.408
40.34,37.322
40.188,37.232
40.038,37.139
39.89,37.045
39.746,36.953
39.604,36.862
39.465,36.774
39.33,36.689
39.2,36.61
39.073,36.534
38.951,36.461
38.83,36.39
38.711,36.32
38.592,36.251
38.47,36.182
38.339,36.114
38.196,36.047
38.043,35.982
37.884,35.918
37.722,35.859
37.561,35.805
37.405,35.757
37.256,35.716
37.115,35.681
36.984,35.652
36.865,35.631
36.757,35.618
36.66,35.611
36.573,35.608
36.495,35.606
36.425,35.605
36.363,35.603
36.31,35.601
36.263,35.599
36.223,35.596
36.188,35.593
36.157,35.591
36.13,35.589
36.107,35.588
36.087,35.587
36.068,35.586
36.05,35.584
36.034,35.582
36.018,35.577
36.004,35.571
35.99,35.564
35.979,35.555
35.97,35.544
35.964,35.531
35.96,35.515
35.958,35.494
35.957,35.469
35.957,35.439
35.957,35.405
35.956,35.367
35.954,35.326
35.949,35.283
35.938,35.237
35.921,35.19
35.896,35.143
35.862,35.096
35.819,35.051
35.767,35.008
35.708,34.968
35.64,34.93
35.567,34.893
35.487,34.858
35.403,34.822
35.316,34.786
35.227,34.749
35.137,34.711
35.048,34.673
34.959,34.636
34.87,34.6
34.782,34.564
34.695,34.528
34.608,34.491
34.522,34.453
34.436,34.415
34.349,34.376
34.259,34.338
34.166,34.298
34.069,34.258
33.969,34.218
33.866,34.175
33.762,34.129
33.657,34.08
33.553,34.028
33.451,33.973
33.352,33.918
33.256,33.863
33.165,33.809
33.079,33.756
32.998,33.705
32.922,33.657
32.853,33.612
32.788,33.572
32.729,33.535
32.674,33.503
32.624,33.476
32.576,33.453
32.529,33.434
32.481,33.417
32.43,33.4
32.377,33.382
32.322,33.361
32.266,33.339
32.209,33.314
32.153,33.287
32.1,33.258
32.049,33.228
32.002,33.196
31.959,33.163
31.917,33.131
31.879,33.1
31.843,33.07
31.808,33.045
31.775,33.024
31.741,33.007
31.707,32.993
31.671,32.98
31.635,32.967
31.598,32.955
31.562,32.942
31.526,32.93
31.493,32.918
31.462,32.909
31.436,32.902
31.414,32.899
31.397,32.902
31.385,32.914
31.377,32.936
31.373,32.97
31.372,33.019
31.375,33.086
31.38,33.174
31.386,33.286
31.392,33.422
31.399,33.585
31.405,33.774
31.409,33.991
31.413,34.235
31.416,34.505
31.419,34.798
31.42,35.112
31.418,35.444
31.414,35.788
31.408,36.138
31.399,36.489
31.39,36.834
31.379,37.169
31.368,37.49
31.357,37.791
31.346,38.068
31.335,38.316
31.325,38.532
31.314,38.713
31.302,38.859
31.289,38.97
31.275,39.046
31.261,39.09
31.248,39.105
31.235,39.095
31.224,39.064
31.216,39.017
31.214,38.959
31.222,38.893
31.245,38.822
31.288,38.749
31.359,38.676
31.464,38.603
31.613,38.532
31.814,38.461
32.073,38.39
32.396,38.32
32.786,38.25
33.241,38.18
33.756,38.11
34.324,38.039
34.935,37.965
35.577,37.889
36.238,37.81
36.911,37.728
37.585,37.645
38.246,37.561
38.878,37.475
39.469,37.391
40.003,37.309
40.473,37.228
40.871,37.149
41.194,37.072
41.443,36.996
41.621,36.92
41.731,36.844
41.781,36.769
41.777,36.695
41.728,36.622
41.641,36.55
41.523,36.479
41.383,36.411
41.228,36.344
41.064,36.279
40.897,36.215
40.728,36.152
40.563,36.091
40.401,36.031
40.243,35.972
40.089,35.915
39.938,35.861
39.791,35.81
39.645,35.765
39.501,35.725
39.357,35.692
39.214,35.664
39.07,35.642
38.927,35.62
38.785,35.589
38.647,35.552
38.512,35.51
38.38,35.466
38.251,35.425
38.126,35.39
38.004,35.364
37.883,35.349
37.765,35.346
37.648,35.357
37.532,35.383
37.415,35.421
37.3,35.471
37.184,35.53
37.068,35.593
36.951,35.657
36.833,35.718
36.715,35.774
36.598,35.821
36.483,35.858
36.371,35.884
36.263,35.896
36.16,35.897
36.061,35.888
35.969,35.87
35.884,35.844
35.805,35.812
35.734,35.775
35.669,35.736
35.612,35.696
35.563,35.657
35.524,35.62
35.494,35.583
35.475,35.545
35.467,35.507
35.469,35.466
35.481,35.421
35.502,35.373
35.529,35.32
35.563,35.264
35.6,35.205
35.637,35.145
35.673,35.085
35.705,35.024
35.732,34.964
35.753,34.905
35.769,34.848
35.779,34.793
35.784,34.739
35.782,34.687
35.775,34.635
35.763,34.583
35.745,34.531
35.722,34.477
35.693,34.423
35.659,34.367
35.62,34.312
35.577,34.258
35.53,34.207
35.477,34.159
35.419,34.115
35.356,34.073
35.289,34.033
35.217,33.995
35.143,33.957
35.067,33.92
34.988,33.884
34.908,33.848
34.827,33.812
34.746,33.777
34.663,33.74
34.577,33.702
34.488,33.662
34.395,33.619
34.3,33.576
34.203,33.532
34.107,33.49
34.011,33.449
33.917,33.41
33.826,33.374
33.74,33.342
33.659,33.313
33.583,33.287
33.511,33.263
33.443,33.24
33.377,33.217
33.314,33.193
33.253,33.166
33.194,33.137
33.136,33.105
33.08,33.071
33.024,33.036
32.967,33.002
32.909,32.97
32.852,32.94
32.794,32.914
32.736,32.894
32.679,32.881
32.622,32.877
32.566,32.887
32.511,32.913
32.456,32.957
32.401,33.023
32.345,33.114
32.288,33.233
32.231,33.382
32.176,33.565
32.123,33.782
32.074,34.034
32.028,34.318
31.985,34.633
31.945,34.976
31.907,35.339
31.873,35.719
31.843,36.107
31.816,36.495
31.792,36.876
31.773,37.241
31.757,37.583
31.745,37.897
31.737,38.18
31.732,38.43
31.732,38.646
31.735,38.827
31.739,38.973
31.744,39.087
31.751,39.17
31.759,39.224
31.768,39.252
31.777,39.256
31.786,39.239
31.793,39.205
31.8,39.157
31.806,39.099
31.81,39.032
31.813,38.961
31.814,38.886
31.812,38.809
31.808,38.732
31.8,38.654
31.788,38.574
31.772,38.491
31.751,38.405
31.726,38.318
31.7,38.229
31.674,38.141
31.648,38.052
31.624,37.962
31.6,37.872
31.577,37.782
31.555,37.691
31.536,37.6
31.521,37.509
31.511,37.419
31.508,37.328
31.514,37.238
31.533,37.148
31.569,37.058
31.628,36.968
31.716,36.879
31.841,36.79
32.011,36.702
32.232,36.614
32.51,36.525
32.848,36.436
33.246,36.347
33.701,36.259
34.206,36.172
34.753,36.086
35.331,36.003
35.927,35.922
36.528,35.844
37.122,35.771
37.699,35.705
38.247,35.645
38.76,35.594
39.23,35.551
39.65,35.515
40.017,35.486
40.327,35.464
40.581,35.448
40.777,35.434
40.918,35.423
41.008,35.413
41.052,35.405
41.055,35.4
41.021,35.398
40.956,35.399
40.867,35.402
40.758,35.406
40.636,35.412
40.504,35.42
40.369,35.429
40.23,35.44
40.09,35.453
39.95,35.468
39.81,35.486
39.669,35.506
39.529,35.525
39.39,35.541
39.252,35.554
39.116,35.563
38.984,35.565
38.856,35.562
38.733,35.551
38.615,35.532
38.502,35.504
38.394,35.468
38.292,35.424
38.194,35.373
38.101,35.317
38.012,35.258
37.925,35.196
37.838,35.135
37.751,35.077
37.663,35.022
37.574,34.971
37.485,34.924
37.395,34.88
37.305,34.838
37.215,34.798
37.127,34.756
37.044,34.713
36.971,34.667
36.907,34.619
36.851,34.569
36.8,34.518
36.753,34.465
36.705,34.413
36.653,34.362
36.596,34.312
36.533,34.265
36.464,34.22
36.392,34.176
36.317,34.132
36.243,34.087
36.17,34.041
36.101,33.993
36.038,33.944
35.982,33.895
35.934,33.846
35.895,33.799
35.864,33.755
35.84,33.715
35.824,33.678
35.813,33.645
35.808,33.615
35.808,33.59
35.813,33.569
35.82,33.552
35.829,33.537
35.839,33.522
35.849,33.508
35.859,33.492
35.867,33.475
35.875,33.455
35.882,33.433
35.886,33.409
35.888,33.383
35.885,33.357
35.877,33.331
35.862,33.306
35.838,33.282
35.806,33.26
35.765,33.241
35.715,33.225
35.656,33.211
35.59,33.198
35.518,33.185
35.442,33.172
35.362,33.157
35.28,33.142
35.194,33.125
35.106,33.108
35.015,33.092
34.921,33.079
34.825,33.068
34.729,33.06
34.633,33.056
34.537,33.054
34.441,33.055
34.346,33.06
34.253,33.068
34.162,33.081
34.073,33.097
33.985,33.116
33.898,33.14
33.812,33.171
33.728,33.213
33.645,33.272
33.563,33.351
33.482,33.455
33.403,33.59
33.325,33.759
33.249,33.966
33.176,34.21
33.106,34.493
33.039,34.811
32.976,35.161
32.916,35.538
32.859,35.934
32.803,36.342
32.748,36.755
32.695,37.165
32.641,37.566
32.589,37.951
32.537,38.313
32.486,38.645
32.436,38.943
32.389,39.203
32.345,39.422
32.302,39.602
32.261,39.743
32.221,39.846
32.182,39.915
32.145,39.954
32.11,39.965
32.075,39.953
32.041,39.921
32.007,39.874
31.972,39.813
31.938,39.741
31.906,39.662
31.874,39.576
31.845,39.488
31.816,39.398
31.789,39.309
31.764,39.221
31.741,39.135
31.719,39.049
31.697,38.962
31.677,38.874
31.656,38.781
31.636,38.684
31.616,38.584
31.597,38.48
31.579,38.373
31.561,38.265
31.545,38.155
31.529,38.046
31.513,37.939
31.498,37.834
31.485,37.731
31.473,37.63
31.464,37.529
31.457,37.428
31.453,37.325
31.452,37.222
31.455,37.116
31.46,37.008
31.468,36.897
31.477,36.785
31.487,36.674
31.498,36.566
31.51,36.464
31.522,36.367
31.533,36.279
31.544,36.198
31.554,36.126
31.562,36.06
31.57,36
31.576,35.944
31.579,35.892
31.58,35.845
31.578,35.801
31.574,35.763
31.567,35.73
31.559,35.703
31.549,35.682
31.54,35.669
31.533,35.663
31.532,35.664
31.542,35.67
31.567,35.679
31.613,35.692
31.686,35.707
31.795,35.722
31.946,35.738
32.149,35.752
32.409,35.764
32.731,35.774
33.117,35.783
33.566,35.791
34.073,35.799
34.632,35.808
35.23,35.817
35.858,35.827
36.502,35.836
37.147,35.843
37.78,35.846
38.385,35.845
38.951,35.84
39.467,35.829
39.923,35.812
40.311,35.79
40.629,35.763
40.877,35.733
41.061,35.701
41.186,35.668
41.262,35.633
41.295,35.598
41.293,35.561
41.263,35.524
41.21,35.485
41.139,35.446
41.054,35.405
40.958,35.363
40.855,35.318
40.747,35.27
40.636,35.221
40.522,35.17
40.407,35.119
40.29,35.068
40.173,35.016
40.057,34.963
39.942,34.91
39.828,34.857
39.716,34.802
39.605,34.744
39.493,34.684
39.381,34.621
39.268,34.556
39.153,34.489
39.037,34.422
38.92,34.354
38.803,34.287
38.686,34.221
38.57,34.158
38.457,34.098
38.346,34.042
38.239,33.99
38.136,33.943
38.036,33.901
37.94,33.863
37.847,33.829
37.756,33.796
37.666,33.763
37.577,33.729
37.487,33.693
37.396,33.654
37.303,33.613
37.21,33.568
37.114,33.521
37.018,33.472
36.921,33.423
36.824,33.376
36.727,33.331
36.632,33.289
36.539,33.251
36.451,33.218
36.368,33.189
36.292,33.164
36.224,33.142
36.165,33.122
36.115,33.102
36.075,33.083
36.046,33.064
36.026,33.044
36.015,33.024
36.011,33.001
36.012,32.977
36.018,32.952
36.028,32.927
36.04,32.902
36.053,32.881
36.066,32.862
36.078,32.848
36.089,32.839
36.099,32.836
36.108,32.838
36.113,32.846
36.114,32.862
36.11,32.888
36.1,32.926
36.083,32.981
36.059,33.056
36.029,33.154
35.993,33.281
35.953,33.439
35.909,33.633
35.861,33.863
35.809,34.13
35.753,34.432
35.694,34.767
35.633,35.131
35.572,35.518
35.511,35.922
35.449,36.334
35.386,36.747
35.322,37.152
35.256,37.543
35.188,37.913
35.115,38.257
35.039,38.569
34.958,38.847
34.875,39.09
34.789,39.296
34.702,39.467
34.615,39.604
34.528,39.707
34.441,39.78
34.354,39.825
34.268,39.845
34.183,39.843
34.099,39.822
34.018,39.784
33.939,39.733
33.861,39.672
33.786,39.602
33.713,39.526
33.641,39.444
33.572,39.357
33.505,39.264
33.439,39.167
33.374,39.066
33.312,38.962
33.251,38.855
33.192,38.747
33.136,38.638
33.08,38.528
33.023,38.419
32.966,38.309
32.908,38.201
32.85,38.094
32.792,37.99
32.735,37.889
32.68,37.792
32.628,37.698
32.578,37.607
32.532,37.518
32.49,37.43
32.45,37.342
32.412,37.253
32.376,37.161
32.339,37.067
32.303,36.969
32.268,36.869
32.232,36.768
32.198,36.668
32.165,36.569
32.133,36.471
32.102,36.375
32.073,36.28
32.045,36.188
32.02,36.1
31.996,36.017
31.974,35.94
31.954,35.869
31.934,35.808
31.917,35.756
31.901,35.712
31.888,35.677
31.878,35.65
31.87,35.631
31.864,35.619
31.861,35.615
31.859,35.618
31.858,35.625
31.857,35.637
31.856,35.651
31.854,35.668
31.849,35.687
31.841,35.708
31.832,35.731
31.82,35.755
31.806,35.782
31.791,35.81
31.774,35.841
31.757,35.872
31.739,35.903
31.72,35.931
31.701,35.957
31.682,35.978
31.664,35.994
31.645,36.005
31.627,36.009
31.607,36.006
31.586,35.997
31.564,35.981
31.541,35.957
31.516,35.926
31.49,35.891
31.463,35.852
31.435,35.813
31.407,35.774
31.379,35.736
31.351,35.699
31.326,35.663
31.304,35.628
31.288,35.593
31.282,35.558
31.29,35.52
31.319,35.479
31.373,35.437
31.462,35.391
31.593,35.344
31.774,35.296
32.012,35.245
32.312,35.193
32.677,35.139
33.107,35.082
33.599,35.025
34.143,34.967
34.731,34.908
35.348,34.848
35.982,34.789
36.619,34.729
37.245,34.668
37.849,34.607
38.418,34.545
38.943,34.482
39.418,34.418
39.839,34.354
40.202,34.29
40.508,34.226
40.757,34.164
40.952,34.103
41.097,34.045
41.194,33.99
41.247,33.939
41.261,33.892
41.24,33.848
41.188,33.808
41.11,33.771
41.011,33.736
40.896,33.703
40.77,33.669
40.636,33.635
40.498,33.6
40.36,33.564
40.222,33.528
40.086,33.493
39.953,33.459
39.822,33.426
39.694,33.396
39.569,33.368
39.445,33.342
39.322,33.318
39.198,33.296
39.075,33.275
38.951,33.252
38.828,33.229
38.708,33.204
38.592,33.177
38.48,33.146
38.373,33.114
38.272,33.079
38.176,33.045
38.085,33.011
37.998,32.977
37.914,32.946
37.832,32.918
37.751,32.894
37.67,32.875
37.587,32.86
37.502,32.849
37.414,32.84
37.325,32.831
37.234,32.822
37.142,32.811
37.05,32.799
36.956,32.785
36.862,32.771
36.769,32.759
36.677,32.753
36.589,32.756
36.503,32.772
36.422,32.807
36.345,32.864
36.273,32.949
36.206,33.066
36.143,33.22
36.085,33.416
36.033,33.654
35.986,33.935
35.944,34.26
35.909,34.63
35.88,35.039
35.858,35.479
35.842,35.942
35.833,36.419
35.831,36.902
35.835,37.38
35.843,37.847
35.854,38.294
35.867,38.715
35.878,39.106
35.888,39.463
35.896,39.782
35.9,40.063
35.901,40.304
35.898,40.507
35.889,40.673
35.875,40.804
35.856,40.902
35.832,40.97
35.803,41.011
35.769,41.027
35.731,41.023
35.69,41.003
35.644,40.97
35.595,40.929
35.544,40.88
35.489,40.826
35.432,40.767
35.372,40.703
35.309,40.636
35.245,40.564
35.179,40.488
35.114,40.408
35.049,40.325
34.983,40.239
34.915,40.15
34.847,40.059
34.778,39.966
34.709,39.871
34.639,39.776
34.567,39.679
34.494,39.582
34.418,39.483
34.341,39.384
34.264,39.283
34.186,39.182
34.109,39.083
34.034,38.983
33.962,38.885
33.894,38.785
33.832,38.682
33.775,38.577
33.724,38.468
33.678,38.355
33.636,38.239
33.598,38.12
33.559,38
33.52,37.88
33.478,37.762
33.434,37.645
33.388,37.531
33.34,37.421
33.289,37.315
33.238,37.216
33.186,37.123
33.135,37.036
33.085,36.956
33.037,36.884
32.989,36.819
32.942,36.763
32.896,36.715
32.851,36.673
32.809,36.637
32.769,36.607
32.733,36.582
32.7,36.563
32.67,36.55
32.645,36.543
32.623,36.54
32.604,36.542
32.587,36.547
32.573,36.555
32.559,36.565
32.546,36.577
32.535,36.59
32.525,36.603
32.516,36.617
32.508,36.63
32.5,36.642
32.493,36.652
32.486,36.658
32.479,36.661
32.473,36.66
32.466,36.653
32.459,36.64
32.451,36.623
32.441,36.602
32.429,36.577
32.415,36.55
32.399,36.521
32.382,36.489
32.364,36.454
32.346,36.417
32.329,36.378
32.313,36.336
32.298,36.292
32.285,36.244
32.274,36.193
32.262,36.138
32.25,36.08
32.237,36.018
32.225,35.953
32.213,35.885
32.201,35.816
32.187,35.745
32.173,35.676
32.157,35.607
32.141,35.541
32.124,35.477
32.108,35.417
32.092,35.359
32.076,35.304
32.063,35.251
32.053,35.198
32.049,35.144
32.053,35.09
32.07,35.035
32.107,34.979
32.171,34.922
32.269,34.863
32.412,34.802
32.607,34.74
32.861,34.677
33.177,34.614
33.555,34.552
33.993,34.489
34.484,34.428
35.021,34.367
35.591,34.306
36.185,34.245
36.788,34.182
37.389,34.118
37.974,34.05
38.535,33.981
39.061,33.91
39.543,33.838
39.975,33.765
40.352,33.691
40.673,33.618
40.935,33.548
41.142,33.483
41.294,33.425
41.396,33.374
41.451,33.331
41.466,33.297
41.446,33.269
41.397,33.247
41.325,33.229
41.235,33.213
41.132,33.2
41.018,33.188
40.897,33.175
40.771,33.16
40.64,33.142
40.508,33.12
40.374,33.094
40.241,33.065
40.109,33.035
39.979,33.005
39.851,32.977
39.725,32.95
39.602,32.926
39.482,32.904
39.365,32.883
39.25,32.864
39.137,32.846
39.025,32.829
38.912,32.814
38.798,32.801
38.683,32.788
38.567,32.775
38.449,32.763
38.331,32.751
38.213,32.74
38.095,32.731
37.978,32.723
37.861,32.718
37.745,32.715
37.63,32.713
37.516,32.717
37.402,32.729
37.291,32.753
37.18,32.795
37.072,32.859
36.965,32.951
36.861,33.074
36.759,33.232
36.66,33.43
36.565,33.668
36.473,33.947
36.384,34.269
36.299,34.63
36.218,35.026
36.142,35.453
36.074,35.903
36.015,36.368
35.964,36.841
35.924,37.313
35.895,37.777
35.875,38.226
35.867,38.653
35.868,39.053
35.879,39.421
35.898,39.754
35.923,40.05
35.952,40.307
35.982,40.524
36.014,40.704
36.045,40.848
36.076,40.959
36.105,41.04
36.132,41.093
36.155,41.122
36.173,41.128
36.184,41.115
36.187,41.084
36.18,41.038
36.164,40.981
36.138,40.913
36.104,40.839
36.061,40.76
36.012,40.68
35.956,40.598
35.895,40.517
35.83,40.436
35.763,40.357
35.693,40.279
35.621,40.202
35.545,40.126
35.466,40.048
35.386,39.969
35.304,39.888
35.221,39.806
35.138,39.722
35.054,39.637
34.968,39.552
34.882,39.465
34.795,39.376
34.706,39.286
34.618,39.195
34.53,39.101
34.442,39.006
34.356,38.909
34.272,38.811
34.192,38.712
34.116,38.613
34.043,38.514
33.974,38.415
33.908,38.317
33.845,38.22
33.784,38.126
33.725,38.035
33.668,37.947
33.614,37.862
33.561,37.778
33.51,37.696
33.46,37.616
33.412,37.538
33.364,37.464
33.316,37.395
33.268,37.331
33.219,37.275
33.169,37.227
33.118,37.188
33.069,37.159
33.02,37.136
32.972,37.12
32.925,37.108
32.879,37.099
32.834,37.092
32.79,37.086
32.748,37.08
32.707,37.075
32.668,37.071
32.631,37.069
32.594,37.07
32.557,37.072
32.522,37.074
32.488,37.075
32.455,37.074
32.424,37.071
32.395,37.066
32.368,37.058
32.344,37.048
32.323,37.035
32.305,37.02
32.289,37.003
32.275,36.983
32.261,36.962
32.246,36.937
32.231,36.911
32.218,36.882
32.206,36.851
32.195,36.819
32.187,36.785
32.18,36.749
32.176,36.712
32.174,36.671
32.173,36.627
32.173,36.578
32.172,36.525
32.17,36.469
32.168,36.409
32.164,36.347
32.159,36.283
32.152,36.217
32.145,36.15
32.136,36.08
32.128,36.009
32.121,35.936
32.114,35.861
32.107,35.785
32.102,35.711
32.096,35.638
32.089,35.569
32.08,35.504
32.07,35.442
32.059,35.384
32.047,35.328
32.034,35.274
32.02,35.221
32.006,35.168
31.99,35.115
31.975,35.059
31.96,35.002
31.945,34.943
31.931,34.882
31.92,34.82
31.914,34.758
31.916,34.696
31.931,34.635
31.964,34.577
32.02,34.521
32.107,34.47
32.236,34.421
32.413,34.374
32.647,34.329
32.944,34.286
33.304,34.244
33.728,34.203
34.211,34.163
34.749,34.123
35.332,34.083
35.948,34.044
36.585,34.005
37.229,33.965
37.867,33.924
38.486,33.884
39.076,33.846
39.628,33.81
40.135,33.779
40.59,33.751
40.992,33.726
41.337,33.704
41.624,33.686
41.855,33.672
42.03,33.66
42.153,33.648
42.228,33.635
42.261,33.62
42.255,33.603
42.215,33.582
42.147,33.557
42.056,33.529
41.948,33.498
41.826,33.467
41.695,33.436
41.559,33.407
41.419,33.378
41.279,33.349
41.141,33.32
41.007,33.292
40.878,33.266
40.754,33.242
40.632,33.217
40.511,33.193
40.392,33.167
40.272,33.141
40.152,33.112
40.031,33.083
39.909,33.052
39.787,33.022
39.665,32.996
39.545,32.975
39.426,32.964
39.31,32.966
39.197,32.984
39.089,33.022
38.985,33.086
38.883,33.181
38.783,33.311
38.682,33.48
38.581,33.692
38.479,33.948
38.376,34.248
38.27,34.589
38.161,34.968
38.049,35.379
37.935,35.815
37.819,36.27
37.702,36.737
37.584,37.209
37.467,37.679
37.352,38.14
37.242,38.586
37.137,39.011
37.039,39.41
36.948,39.78
36.866,40.117
36.795,40.419
36.733,40.684
36.681,40.913
36.639,41.104
36.603,41.261
36.575,41.385
36.552,41.478
36.535,41.543
36.522,41.584
36.514,41.601
36.51,41.599
36.51,41.58
36.512,41.543
36.516,41.492
36.521,41.428
36.528,41.354
36.534,41.273
36.54,41.186
36.544,41.097
36.545,41.006
36.54,40.915
36.53,40.825
36.514,40.736
36.492,40.648
36.463,40.56
36.426,40.472
36.381,40.384
36.328,40.297
36.268,40.211
36.201,40.127
36.129,40.044
36.051,39.962
35.969,39.882
35.885,39.803
35.798,39.723
35.711,39.641
35.625,39.555
35.54,39.464
35.457,39.367
35.376,39.264
35.298,39.155
35.221,39.041
35.146,38.922
35.072,38.801
34.999,38.678
34.926,38.556
34.852,38.435
34.777,38.315
34.7,38.198
34.62,38.085
34.538,37.979
34.453,37.879
34.366,37.786
34.277,37.702
34.185,37.626
34.092,37.557
34,37.496
33.911,37.441
33.825,37.394
33.743,37.353
33.666,37.318
33.593,37.287
33.524,37.261
33.462,37.239
33.405,37.221
33.354,37.207
33.307,37.196
33.264,37.188
33.224,37.184
33.187,37.182
33.152,37.182
33.118,37.183
33.085,37.185
33.052,37.188
33.02,37.19
32.988,37.192
32.955,37.192
32.922,37.188
32.887,37.177
32.852,37.161
32.815,37.139
32.775,37.111
32.732,37.08
32.687,37.047
32.64,37.01
32.591,36.972
32.541,36.933
32.49,36.892
32.438,36.847
32.389,36.796
32.341,36.739
32.298,36.676
32.259,36.606
32.224,36.532
32.192,36.454
32.163,36.374
32.137,36.294
32.112,36.213
32.09,36.134
32.068,36.055
32.048,35.978
32.029,35.902
32.012,35.826
31.997,35.752
31.984,35.676
31.972,35.597
31.959,35.516
31.945,35.432
31.931,35.346
31.916,35.259
31.901,35.172
31.885,35.086
31.87,35.002
31.855,34.923
31.841,34.847
31.829,34.776
31.819,34.709
31.81,34.643
31.802,34.578
31.795,34.514
31.788,34.449
31.78,34.382
31.773,34.314
31.764,34.245
31.753,34.173
31.741,34.1
31.727,34.027
31.711,33.954
31.694,33.882
31.674,33.813
31.654,33.748
31.631,33.686
31.605,33.628
31.577,33.572
31.547,33.518
31.517,33.465
31.487,33.413
31.462,33.363
31.443,33.315
31.437,33.267
31.449,33.22
31.487,33.172
31.562,33.125
31.683,33.078
31.859,33.033
32.097,32.991
32.403,32.952
32.781,32.917
33.23,32.886
33.747,32.858
34.325,32.833
34.954,32.811
35.62,32.79
36.309,32.771
37.006,32.753
37.694,32.734
38.362,32.714
38.995,32.691
39.582,32.665
40.115,32.637
40.587,32.607
40.995,32.576
41.336,32.545
41.614,32.515
41.829,32.487
41.987,32.462
42.09,32.44
42.146,32.421
42.159,32.405
42.135,32.391
42.081,32.38
42,32.373
41.899,32.368
41.781,32.366
41.652,32.367
41.514,32.374
41.371,32.388
41.227,32.412
41.083,32.45
40.941,32.506
40.802,32.586
40.666,32.697
40.533,32.844
40.403,33.032
40.276,33.264
40.151,33.542
40.028,33.864
39.906,34.229
39.783,34.633
39.66,35.07
39.535,35.534
39.41,36.015
39.286,36.505
39.163,36.993
39.041,37.472
38.921,37.933
38.801,38.371
38.683,38.78
38.567,39.155
38.451,39.494
38.338,39.795
38.226,40.058
38.116,40.283
38.006,40.471
37.897,40.622
37.787,40.741
37.677,40.829
37.567,40.891
37.46,40.93
37.354,40.947
37.252,40.946
37.152,40.929
37.057,40.901
36.965,40.862
36.88,40.817
36.799,40.765
36.725,40.709
36.657,40.648
36.596,40.583
36.541,40.515
36.494,40.441
36.454,40.361
36.422,40.275
36.398,40.183
36.38,40.084
36.37,39.979
36.366,39.868
36.369,39.754
36.378,39.636
36.392,39.517
36.411,39.398
36.434,39.281
36.459,39.165
36.484,39.051
36.507,38.939
36.527,38.829
36.543,38.722
36.554,38.618
36.561,38.515
36.562,38.414
36.557,38.312
36.546,38.21
36.529,38.105
36.506,37.998
36.478,37.887
36.444,37.771
36.404,37.653
36.359,37.532
36.309,37.411
36.255,37.29
36.197,37.172
36.136,37.057
36.072,36.947
36.004,36.843
35.932,36.748
35.856,36.663
35.776,36.59
35.693,36.527
35.606,36.476
35.515,36.436
35.42,36.406
35.322,36.384
35.22,36.369
35.116,36.36
35.01,36.355
34.905,36.354
34.8,36.354
34.696,36.355
34.594,36.356
34.494,36.357
34.398,36.358
34.307,36.359
34.222,36.358
34.143,36.355
34.068,36.35
33.998,36.343
33.932,36.333
33.871,36.322
33.813,36.308
33.757,36.294
33.705,36.278
33.655,36.263
33.607,36.247
33.56,36.229
33.512,36.21
33.463,36.186
33.41,36.156
33.348,36.119
33.271,36.076
33.181,36.025
33.079,35.968
32.97,35.905
32.858,35.838
32.749,35.768
32.645,35.696
32.55,35.624
32.467,35.553
32.395,35.484
32.336,35.416
32.287,35.351
32.25,35.288
32.222,35.227
32.202,35.168
32.189,35.108
32.182,35.046
32.178,34.982
32.177,34.916
32.178,34.847
32.18,34.776
32.182,34.702
32.186,34.627
32.188,34.549
32.189,34.471
32.188,34.392
32.186,34.314
32.183,34.237
32.18,34.163
32.176,34.092
32.172,34.025
32.169,33.963
32.167,33.904
32.165,33.848
32.162,33.795
32.157,33.744
32.151,33.693
32.142,33.643
32.132,33.592
32.12,33.541
32.109,33.493
32.096,33.446
32.083,33.403
32.069,33.363
32.055,33.326
32.041,33.292
32.027,33.262
32.013,33.235
32.001,33.21
31.989,33.186
31.978,33.162
31.968,33.137
31.959,33.111
31.953,33.082
31.948,33.05
31.946,33.017
31.946,32.983
31.949,32.948
31.958,32.914
31.971,32.88
31.993,32.845
32.026,32.809
32.075,32.773
32.146,32.738
32.248,32.705
32.389,32.673
32.575,32.642
32.815,32.612
33.112,32.583
33.468,32.555
33.884,32.528
34.354,32.504
34.873,32.481
35.431,32.46
36.016,32.444
36.616,32.432
37.219,32.425
37.813,32.425
38.387,32.43
38.93,32.443
39.435,32.465
39.894,32.5
40.302,32.549
40.655,32.616
40.951,32.704
41.19,32.818
41.373,32.964
41.502,33.144
41.581,33.364
41.616,33.624
41.611,33.928
41.572,34.274
41.503,34.661
41.409,35.085
41.296,35.538
41.166,36.012
41.025,36.499
40.874,36.989
40.718,37.474
40.559,37.946
40.398,38.399
40.236,38.826
40.075,39.224
39.915,39.59
39.758,39.922
39.605,40.217
39.456,40.475
39.312,40.694
39.172,40.874
39.035,41.016
38.902,41.124
38.773,41.201
38.646,41.248
38.522,41.267
38.4,41.262
38.277,41.236
38.154,41.191
38.031,41.13
37.909,41.055
37.787,40.969
37.666,40.876
37.545,40.777
37.424,40.677
37.304,40.576
37.185,40.477
37.067,40.379
36.95,40.283
36.834,40.188
36.72,40.095
36.607,40.003
36.496,39.91
36.388,39.817
36.285,39.723
36.187,39.626
36.096,39.527
36.013,39.424
35.937,39.317
35.869,39.205
35.81,39.088
35.76,38.969
35.72,38.848
35.69,38.727
35.67,38.607
35.661,38.487
35.663,38.368
35.673,38.249
35.693,38.132
35.719,38.015
35.753,37.898
35.791,37.781
35.832,37.665
35.875,37.548
35.917,37.432
35.959,37.316
35.998,37.2
36.033,37.087
36.058,36.978
36.07,36.876
36.069,36.783
36.055,36.7
36.031,36.627
36.001,36.565
35.967,36.513
35.93,36.472
35.892,36.44
35.854,36.417
35.818,36.399
35.783,36.386
35.748,36.374
35.713,36.363
35.675,36.353
35.634,36.343
35.589,36.334
35.542,36.327
35.49,36.324
35.434,36.323
35.373,36.324
35.307,36.326
35.236,36.327
35.161,36.327
35.081,36.325
34.997,36.32
34.911,36.31
34.822,36.297
34.733,36.279
34.644,36.258
34.555,36.233
34.468,36.204
34.383,36.17
34.299,36.132
34.218,36.089
34.138,36.043
34.06,35.991
33.983,35.936
33.908,35.876
33.835,35.812
33.762,35.744
33.691,35.673
33.618,35.6
33.546,35.527
33.472,35.453
33.398,35.381
33.323,35.312
33.246,35.247
33.168,35.186
33.088,35.127
33.008,35.069
32.928,35.009
32.849,34.947
32.77,34.883
32.693,34.815
32.618,34.745
32.547,34.671
32.481,34.595
32.421,34.517
32.367,34.439
32.319,34.361
32.277,34.285
32.241,34.211
32.211,34.14
32.187,34.073
32.169,34.009
32.155,33.95
32.146,33.893
32.141,33.838
32.139,33.784
32.14,33.729
32.143,33.671
32.149,33.609
32.155,33.542
32.163,33.471
32.169,33.394
32.175,33.315
32.179,33.235
32.181,33.157
32.182,33.082
32.182,33.013
32.181,32.95
32.179,32.896
32.176,32.85
32.172,32.81
32.166,32.776
32.158,32.748
32.148,32.723
32.137,32.703
32.125,32.684
32.112,32.667
32.098,32.651
32.085,32.635
32.074,32.62
32.064,32.605
32.056,32.59
32.05,32.576
32.045,32.563
32.042,32.551
32.04,32.539
32.04,32.529
32.043,32.518
32.051,32.505
32.064,32.489
32.085,32.47
32.118,32.449
32.167,32.425
32.238,32.401
32.338,32.375
32.473,32.351
32.652,32.328
32.879,32.306
33.159,32.285
33.494,32.266
33.884,32.249
34.324,32.234
34.808,32.224
35.327,32.218
35.871,32.219
36.429,32.229
36.991,32.251
37.546,32.291
38.084,32.352
38.596,32.442
39.074,32.564
39.51,32.725
39.899,32.927
40.237,33.176
40.524,33.471
40.758,33.813
40.94,34.2
41.07,34.629
41.152,35.096
41.188,35.594
41.185,36.116
41.145,36.652
41.076,37.194
40.983,37.73
40.871,38.253
40.748,38.754
40.616,39.227
40.48,39.665
40.343,40.065
40.207,40.422
40.075,40.735
39.947,41.004
39.825,41.231
39.707,41.418
39.593,41.57
39.482,41.689
39.373,41.78
39.265,41.847
39.158,41.894
39.051,41.921
38.943,41.932
38.835,41.926
38.729,41.906
38.625,41.873
38.521,41.828
38.419,41.773
38.314,41.709
38.203,41.638
38.085,41.561
37.963,41.481
37.838,41.396
37.714,41.308
37.593,41.215
37.476,41.119
37.365,41.02
37.262,40.921
37.167,40.821
37.08,40.722
37,40.622
36.926,40.523
36.858,40.422
36.795,40.321
36.735,40.218
36.678,40.111
36.623,40.001
36.568,39.887
36.512,39.77
36.455,39.65
36.396,39.527
36.337,39.404
36.281,39.279
36.227,39.154
36.179,39.031
36.136,38.909
36.099,38.79
36.069,38.672
36.046,38.556
36.031,38.439
36.022,38.323
36.019,38.206
36.021,38.09
36.026,37.975
36.033,37.863
36.041,37.755
36.05,37.651
36.058,37.553
36.065,37.459
36.071,37.37
36.074,37.286
36.074,37.208
36.072,37.134
36.067,37.067
36.059,37.007
36.049,36.953
36.035,36.906
36.018,36.867
35.995,36.836
35.968,36.813
35.936,36.797
35.898,36.786
35.855,36.778
35.807,36.773
35.752,36.769
35.693,36.764
35.63,36.759
35.563,36.751
35.493,36.741
35.419,36.73
35.342,36.716
35.262,36.7
35.18,36.679
35.095,36.653
35.009,36.622
34.921,36.585
34.832,36.543
34.744,36.497
34.656,36.447
34.571,36.391
34.489,36.329
34.409,36.261
34.331,36.189
34.256,36.115
34.183,36.038
34.113,35.96
34.043,35.882
33.974,35.805
33.905,35.729
33.835,35.653
33.764,35.578
33.692,35.502
33.62,35.424
33.549,35.344
33.48,35.261
33.413,35.174
33.348,35.084
33.285,34.993
33.224,34.901
33.166,34.81
33.111,34.72
33.058,34.631
33.007,34.546
32.957,34.463
32.909,34.384
32.862,34.307
32.819,34.233
32.777,34.159
32.737,34.085
32.697,34.013
32.659,33.942
32.622,33.873
32.587,33.807
32.554,33.743
32.523,33.68
32.495,33.619
32.468,33.558
32.445,33.498
32.424,33.436
32.404,33.374
32.386,33.309
32.368,33.243
32.351,33.175
32.333,33.104
32.313,33.03
32.292,32.954
32.267,32.877
32.241,32.799
32.211,32.722
32.18,32.648
32.147,32.577
32.113,32.51
32.079,32.449
32.046,32.395
32.015,32.349
31.986,32.311
31.959,32.278
31.936,32.252
31.917,32.23
31.903,32.212
31.893,32.197
31.887,32.18
31.884,32.16
31.884,32.135
31.885,32.104
31.888,32.067
31.89,32.026
31.892,31.983
31.894,31.94
31.896,31.898
31.897,31.859
31.897,31.824
31.897,31.795
31.895,31.771
31.893,31.755
31.894,31.746
31.899,31.745
31.911,31.748
31.935,31.755
31.974,31.762
32.036,31.769
32.129,31.775
32.258,31.779
32.432,31.781
32.656,31.781
32.933,31.781
33.268,31.782
33.659,31.787
34.105,31.799
34.6,31.821
35.135,31.858
35.702,31.915
36.289,31.996
36.885,32.108
37.476,32.254
38.05,32.44
38.595,32.668
39.103,32.943
39.564,33.264
39.972,33.633
40.325,34.047
40.619,34.502
40.855,34.993
41.034,35.513
41.16,36.055
41.236,36.611
41.268,37.172
41.262,37.729
41.224,38.274
41.16,38.801
41.074,39.304
40.969,39.777
40.85,40.216
40.719,40.616
40.579,40.974
40.433,41.29
40.283,41.562
40.131,41.793
39.979,41.983
39.829,42.134
39.68,42.247
39.535,42.325
39.393,42.371
39.256,42.386
39.124,42.374
38.997,42.337
38.875,42.28
38.757,42.205
38.645,42.117
38.536,42.021
38.433,41.918
38.335,41.81
38.241,41.702
38.151,41.593
38.064,41.485
37.979,41.379
37.896,41.275
37.814,41.172
37.732,41.072
37.651,40.974
37.569,40.879
37.485,40.784
37.399,40.69
37.311,40.594
37.22,40.495
37.128,40.39
37.034,40.281
36.938,40.166
36.841,40.046
36.743,39.923
36.645,39.797
36.547,39.669
36.451,39.541
36.358,39.411
36.27,39.281
36.187,39.151
36.112,39.02
36.043,38.888
35.983,38.758
35.931,38.63
35.889,38.504
35.856,38.38
35.833,38.26
35.819,38.143
35.812,38.029
35.812,37.92
35.82,37.814
35.834,37.71
35.854,37.61
35.879,37.512
35.909,37.418
35.942,37.327
35.975,37.239
36.009,37.156
36.04,37.076
36.067,37.002
36.088,36.934
36.101,36.873
36.107,36.818
36.103,36.77
36.091,36.73
36.072,36.698
36.045,36.674
36.011,36.658
35.97,36.648
35.922,36.642
35.868,36.638
35.809,36.634
35.745,36.628
35.677,36.62
35.604,36.608
35.528,36.592
35.449,36.572
35.368,36.546
35.287,36.515
35.207,36.478
35.128,36.435
35.05,36.387
34.974,36.336
34.899,36.282
34.826,36.228
34.754,36.172
34.682,36.116
34.608,36.06
34.53,36.004
34.451,35.949
34.368,35.893
34.284,35.836
34.198,35.777
34.112,35.714
34.027,35.646
33.943,35.572
33.861,35.492
33.78,35.404
33.701,35.312
33.624,35.216
33.546,35.119
33.469,35.022
33.393,34.926
33.317,34.833
33.243,34.743
33.172,34.656
33.104,34.571
33.038,34.487
32.975,34.402
32.915,34.317
32.858,34.231
32.802,34.145
32.749,34.06
32.696,33.976
32.643,33.893
32.591,33.812
32.54,33.732
32.489,33.654
32.439,33.577
32.39,33.502
32.342,33.429
32.295,33.358
32.25,33.289
32.207,33.221
32.165,33.153
32.125,33.085
32.087,33.015
32.051,32.944
32.016,32.872
31.983,32.801
31.951,32.731
31.922,32.663
31.897,32.597
31.876,32.532
31.861,32.469
31.85,32.407
31.842,32.347
31.836,32.289
31.832,32.233
31.828,32.18
31.824,32.127
31.822,32.076
31.82,32.026
31.819,31.976
31.819,31.927
31.82,31.879
31.821,31.832
31.824,31.788
31.828,31.746
31.832,31.707
31.838,31.672
31.844,31.642
31.851,31.616
31.859,31.594
31.867,31.576
31.875,31.562
31.882,31.55
31.888,31.54
31.893,31.532
31.897,31.523
31.898,31.513
31.898,31.502
31.895,31.489
31.89,31.474
31.883,31.458
31.875,31.438
31.865,31.415
31.856,31.392
31.848,31.368
31.844,31.347
31.847,31.328
31.861,31.312
31.888,31.298
31.935,31.284
32.007,31.271
32.113,31.259
32.26,31.246
32.456,31.233
32.707,31.22
33.015,31.207
33.381,31.193
33.803,31.178
34.277,31.162
34.795,31.145
35.349,31.13
35.928,31.127
36.52,31.15
37.114,31.202
37.698,31.286
38.259,31.401
38.787,31.549
39.273,31.73
39.711,31.945
40.095,32.194
40.423,32.478
40.693,32.799
40.907,33.155
41.067,33.547
41.175,33.971
41.236,34.424
41.254,34.899
41.235,35.392
41.184,35.897
41.106,36.407
41.005,36.916
40.887,37.418
40.754,37.907
40.61,38.377
40.458,38.824
40.301,39.243
40.14,39.628
39.977,39.977
39.812,40.289
39.648,40.564
39.486,40.802
39.328,41.005
39.176,41.175
39.03,41.312
38.891,41.42
38.758,41.498
38.629,41.549
38.504,41.576
38.383,41.578
38.264,41.56
38.148,41.522
38.033,41.469
37.918,41.403
37.803,41.328
37.69,41.244
37.578,41.154
37.468,41.058
37.361,40.959
37.256,40.858
37.153,40.756
37.052,40.655
36.954,40.553
36.858,40.452
36.764,40.351
36.673,40.25
36.585,40.148
36.5,40.045
36.419,39.94
36.341,39.832
36.266,39.722
36.195,39.611
36.127,39.498
36.062,39.385
35.999,39.269
35.939,39.152
35.881,39.032
35.826,38.909
35.774,38.783
35.727,38.654
35.684,38.523
35.647,38.389
35.614,38.254
35.588,38.118
35.57,37.981
35.559,37.844
35.555,37.707
35.559,37.571
35.569,37.437
35.587,37.307
35.609,37.181
35.636,37.06
35.666,36.947
35.698,36.841
35.731,36.744
35.763,36.656
35.793,36.579
35.82,36.509
35.843,36.448
35.862,36.394
35.876,36.346
35.885,36.299
35.888,36.247
35.884,36.191
35.874,36.131
35.857,36.071
35.834,36.014
35.804,35.962
35.767,35.919
35.724,35.887
35.677,35.865
35.628,35.854
35.58,35.854
35.534,35.862
35.489,35.876
35.443,35.893
35.395,35.912
35.345,35.931
35.289,35.949
35.228,35.964
35.16,35.973
35.086,35.974
35.004,35.965
34.917,35.945
34.824,35.915
34.726,35.875
34.626,35.825
34.523,35.767
34.421,35.702
34.321,35.633
34.221,35.56
34.124,35.486
34.029,35.412
33.937,35.338
33.849,35.263
33.765,35.189
33.683,35.115
33.604,35.041
33.528,34.967
33.457,34.893
33.39,34.819
33.328,34.745
33.268,34.67
33.211,34.593
33.156,34.513
33.102,34.43
33.05,34.346
32.998,34.262
32.947,34.178
32.898,34.094
32.85,34.011
32.804,33.929
32.759,33.849
32.717,33.771
32.676,33.696
32.637,33.622
32.6,33.551
32.566,33.48
32.535,33.411
32.506,33.341
32.48,33.272
32.455,33.201
32.432,33.129
32.411,33.056
32.393,32.985
32.378,32.915
32.367,32.849
32.36,32.785
32.358,32.725
32.359,32.667
32.362,32.611
32.368,32.557
32.374,32.505
32.379,32.455
32.382,32.406
32.384,32.359
32.385,32.311
32.384,32.262
32.382,32.212
32.378,32.161
32.374,32.111
32.369,32.064
32.364,32.022
32.36,31.985
32.357,31.952
32.354,31.922
32.35,31.894
32.346,31.869
32.34,31.846
32.338,31.824
32.344,31.802
32.355,31.78
32.372,31.753
32.39,31.717
32.408,31.672
32.426,31.62
32.441,31.563
32.453,31.505
32.464,31.452
32.474,31.407
32.489,31.373
32.514,31.35
32.556,31.339
32.624,31.34
32.726,31.35
32.868,31.367
33.059,31.39
33.303,31.416
33.602,31.442
33.955,31.468
34.361,31.491
34.813,31.51
35.303,31.525
35.822,31.537
36.359,31.544
36.904,31.549
37.446,31.552
37.973,31.553
38.475,31.552
38.943,31.551
39.368,31.55
39.747,31.549
40.074,31.549
40.349,31.549
40.57,31.548
40.74,31.549
40.861,31.551
40.938,31.557
40.974,31.572
40.974,31.597
40.943,31.639
40.886,31.703
40.807,31.796
40.709,31.925
40.598,32.095
40.474,32.313
40.34,32.581
40.199,32.902
40.053,33.277
39.905,33.704
39.756,34.179
39.61,34.694
39.466,35.242
39.327,35.813
39.192,36.398
39.061,36.985
38.935,37.564
38.812,38.126
38.692,38.663
38.575,39.169
38.458,39.64
38.341,40.071
38.223,40.458
38.106,40.799
37.988,41.092
37.871,41.337
37.755,41.535
37.641,41.688
37.528,41.801
37.417,41.876
37.307,41.92
37.199,41.935
37.092,41.928
36.988,41.899
36.885,41.852
36.784,41.789
36.684,41.715
36.588,41.631
36.494,41.541
36.403,41.446
36.316,41.348
36.231,41.246
36.149,41.14
36.069,41.029
35.993,40.914
35.922,40.794
35.855,40.669
35.795,40.542
35.743,40.414
35.699,40.286
35.665,40.158
35.639,40.032
35.623,39.907
35.616,39.78
35.617,39.652
35.628,39.521
35.648,39.386
35.675,39.247
35.708,39.107
35.748,38.967
35.793,38.827
35.841,38.689
35.891,38.552
35.94,38.416
35.985,38.28
36.024,38.144
36.055,38.007
36.078,37.87
36.092,37.732
36.094,37.594
36.083,37.456
36.06,37.321
36.026,37.188
35.981,37.061
35.929,36.94
35.87,36.825
35.805,36.717
35.738,36.616
35.67,36.521
35.602,36.435
35.535,36.356
35.469,36.285
35.405,36.222
35.341,36.166
35.277,36.118
35.212,36.077
35.146,36.043
35.08,36.016
35.012,35.996
34.943,35.985
34.874,35.981
34.802,35.986
34.729,35.994
34.654,36.006
34.577,36.017
34.498,36.026
34.416,36.031
34.331,36.031
34.242,36.025
34.152,36.013
34.06,35.996
33.969,35.973
33.879,35.945
33.789,35.915
33.703,35.88
33.619,35.843
33.54,35.802
33.468,35.758
33.401,35.71
33.34,35.66
33.284,35.607
33.232,35.551
33.184,35.493
33.139,35.434
33.097,35.373
33.056,35.309
33.016,35.244
32.977,35.177
32.94,35.108
32.903,35.038
32.868,34.965
32.834,34.889
32.802,34.811
32.77,34.729
32.74,34.645
32.71,34.558
32.682,34.469
32.657,34.378
32.634,34.287
32.615,34.195
32.6,34.104
32.588,34.012
32.58,33.921
32.576,33.829
32.575,33.738
32.577,33.646
32.582,33.555
32.589,33.466
32.596,33.377
32.602,33.29
32.607,33.205
32.609,33.122
32.61,33.041
32.609,32.964
32.606,32.888
32.601,32.813
32.594,32.738
32.584,32.661
32.572,32.584
32.559,32.507
32.544,32.43
32.529,32.354
32.513,32.28
32.496,32.21
32.479,32.145
32.462,32.087
32.445,32.033
32.431,31.985
32.421,31.941
32.415,31.9
32.418,31.862
32.432,31.826
32.462,31.791
32.513,31.757
32.592,31.723
32.706,31.689
32.862,31.655
33.066,31.62
33.324,31.583
33.637,31.547
34.005,31.511
34.427,31.478
34.895,31.446
35.402,31.418
35.938,31.393
36.494,31.371
37.058,31.354
37.621,31.34
38.17,31.329
38.697,31.32
39.193,31.311
39.652,31.302
40.07,31.292
40.445,31.281
40.773,31.27
41.054,31.258
41.287,31.247
41.475,31.236
41.617,31.227
41.718,31.218
41.779,31.21
41.804,31.202
41.795,31.195
41.757,31.189
41.692,31.183
41.605,31.178
41.5,31.173
41.379,31.168
41.248,31.161
41.11,31.154
40.969,31.146
40.827,31.139
40.685,31.134
40.546,31.134
40.41,31.143
40.275,31.163
40.143,31.199
40.013,31.254
39.885,31.333
39.758,31.44
39.634,31.583
39.512,31.766
39.392,31.993
39.275,32.268
39.159,32.59
39.047,32.96
38.938,33.376
38.833,33.835
38.731,34.332
38.632,34.862
38.533,35.417
38.433,35.988
38.33,36.567
38.225,37.144
38.117,37.71
38.004,38.256
37.886,38.775
37.765,39.259
37.64,39.705
37.512,40.107
37.384,40.464
37.256,40.774
37.128,41.038
37.003,41.257
36.881,41.433
36.762,41.566
36.65,41.655
36.544,41.704
36.446,41.716
36.357,41.699
36.277,41.657
36.205,41.597
36.142,41.525
36.087,41.444
36.04,41.357
36.001,41.269
35.97,41.179
35.946,41.09
35.929,41
35.919,40.909
35.914,40.816
35.916,40.72
35.923,40.622
35.934,40.522
35.949,40.419
35.966,40.314
35.985,40.207
36.006,40.098
36.029,39.988
36.054,39.877
36.079,39.764
36.104,39.65
36.126,39.535
36.144,39.417
36.158,39.297
36.166,39.174
36.166,39.048
36.158,38.918
36.141,38.784
36.114,38.648
36.077,38.509
36.032,38.367
35.98,38.221
35.92,38.073
35.857,37.923
35.79,37.772
35.722,37.621
35.652,37.473
35.581,37.328
35.509,37.188
35.437,37.054
35.364,36.927
35.291,36.807
35.216,36.692
35.141,36.583
35.067,36.48
34.992,36.382
34.917,36.292
34.841,36.209
34.766,36.136
34.693,36.071
34.619,36.017
34.545,35.973
34.468,35.941
34.388,35.918
34.305,35.903
34.219,35.894
34.133,35.89
34.046,35.89
33.96,35.894
33.874,35.902
33.791,35.911
33.709,35.922
33.63,35.931
33.554,35.939
33.48,35.943
33.409,35.944
33.341,35.941
33.274,35.933
33.211,35.92
33.15,35.9
33.094,35.874
33.042,35.84
32.993,35.8
32.948,35.753
32.906,35.7
32.866,35.642
32.828,35.581
32.793,35.518
32.759,35.453
32.726,35.389
32.693,35.326
32.661,35.264
32.629,35.203
32.599,35.142
32.569,35.078
32.541,35.011
32.514,34.942
32.489,34.871
32.466,34.799
32.444,34.727
32.421,34.657
32.398,34.59
32.375,34.525
32.353,34.461
32.332,34.397
32.312,34.33
32.294,34.261
32.278,34.188
32.266,34.11
32.258,34.029
32.253,33.943
32.251,33.854
32.249,33.761
32.249,33.665
32.249,33.568
32.251,33.471
32.252,33.374
32.252,33.28
32.252,33.19
32.251,33.103
32.249,33.02
32.245,32.941
32.24,32.865
32.232,32.793
32.223,32.724
32.21,32.657
32.194,32.592
32.176,32.528
32.157,32.463
32.138,32.396
32.122,32.326
32.111,32.253
32.108,32.179
32.119,32.104
32.148,32.03
32.201,31.957
32.285,31.887
32.409,31.819
32.577,31.756
32.799,31.697
33.079,31.643
33.421,31.595
33.825,31.552
34.289,31.516
34.807,31.485
35.37,31.458
35.967,31.435
36.589,31.416
37.223,31.398
37.857,31.382
38.477,31.366
39.073,31.347
39.633,31.325
40.149,31.301
40.615,31.275
41.026,31.246
41.377,31.215
41.67,31.183
41.904,31.152
42.082,31.122
42.206,31.093
42.283,31.066
42.316,31.04
42.312,31.017
42.278,30.995
42.22,30.978
42.143,30.963
42.05,30.95
41.947,30.936
41.836,30.92
41.719,30.902
41.601,30.882
41.481,30.86
41.361,30.838
41.242,30.815
41.124,30.794
41.007,30.774
40.891,30.757
40.775,30.743
40.659,30.732
40.546,30.725
40.435,30.722
40.328,30.724
40.223,30.731
40.122,30.742
40.024,30.759
39.93,30.783
39.838,30.817
39.749,30.867
39.662,30.937
39.577,31.034
39.494,31.163
39.412,31.333
39.331,31.551
39.251,31.822
39.17,32.147
39.09,32.528
39.01,32.962
38.928,33.445
38.842,33.972
38.751,34.534
38.654,35.12
38.552,35.719
38.446,36.322
38.335,36.916
38.222,37.494
38.107,38.047
37.99,38.567
37.873,39.048
37.757,39.487
37.643,39.88
37.533,40.228
37.428,40.529
37.327,40.783
37.233,40.992
37.146,41.159
37.067,41.287
36.996,41.38
36.934,41.442
36.882,41.476
36.839,41.487
36.805,41.478
36.781,41.453
36.764,41.414
36.754,41.363
36.75,41.302
36.752,41.23
36.757,41.15
36.765,41.061
36.774,40.964
36.781,40.86
36.787,40.75
36.789,40.635
36.787,40.517
36.779,40.395
36.763,40.272
36.737,40.146
36.701,40.018
36.654,39.888
36.598,39.756
36.531,39.624
36.457,39.492
36.374,39.361
36.286,39.23
36.195,39.1
36.101,38.971
36.006,38.844
35.911,38.72
35.816,38.597
35.721,38.474
35.626,38.35
35.533,38.225
35.441,38.097
35.351,37.969
35.262,37.838
35.176,37.706
35.089,37.573
35.003,37.439
34.916,37.306
34.829,37.174
34.742,37.044
34.655,36.916
34.567,36.791
34.478,36.669
34.388,36.552
34.297,36.441
34.205,36.337
34.112,36.241
34.019,36.155
33.926,36.079
33.833,36.014
33.742,35.959
33.655,35.912
33.57,35.874
33.49,35.843
33.413,35.818
33.337,35.799
33.264,35.784
33.193,35.772
33.125,35.763
33.06,35.756
32.998,35.751
32.939,35.748
32.882,35.745
32.827,35.743
32.775,35.742
32.724,35.74
32.674,35.738
32.626,35.734
32.58,35.728
32.536,35.717
32.494,35.703
32.455,35.684
32.417,35.661
32.382,35.634
32.349,35.602
32.317,35.566
32.287,35.525
32.26,35.48
32.235,35.431
32.213,35.376
32.193,35.315
32.174,35.248
32.157,35.176
32.141,35.101
32.124,35.025
32.107,34.948
32.088,34.872
32.069,34.798
32.05,34.726
32.03,34.656
32.01,34.587
31.99,34.52
31.97,34.452
31.951,34.383
31.933,34.311
31.917,34.238
31.901,34.162
31.885,34.082
31.87,34
31.854,33.914
31.839,33.825
31.825,33.736
31.81,33.648
31.797,33.561
31.785,33.476
31.775,33.394
31.766,33.314
31.758,33.237
31.751,33.161
31.744,33.088
31.738,33.015
31.732,32.943
31.726,32.871
31.718,32.799
31.709,32.726
31.699,32.65
31.689,32.573
31.678,32.496
31.668,32.419
31.657,32.345
31.647,32.274
31.639,32.208
31.634,32.146
31.636,32.089
31.647,32.036
31.669,31.987
31.709,31.939
31.774,31.894
31.873,31.85
32.015,31.809
32.208,31.769
32.459,31.728
32.773,31.686
33.15,31.642
33.59,31.596
34.086,31.551
34.631,31.506
35.214,31.463
35.825,31.422
36.449,31.384
37.076,31.351
37.693,31.322
38.29,31.298
38.857,31.278
39.384,31.263
39.864,31.251
40.293,31.243
40.665,31.238
40.978,31.232
41.233,31.224
41.43,31.213
41.573,31.197
41.666,31.177
41.713,31.153
41.721,31.126
41.695,31.095
41.639,31.06
41.559,31.025
41.459,30.991
41.346,30.96
41.222,30.932
41.091,30.908
40.957,30.889
40.82,30.875
40.682,30.865
40.544,30.859
40.407,30.854
40.271,30.852
40.135,30.851
40,30.853
39.865,30.858
39.729,30.866
39.593,30.879
39.458,30.9
39.324,30.933
39.191,30.982
39.06,31.053
38.932,31.151
38.806,31.281
38.683,31.449
38.564,31.662
38.45,31.923
38.341,32.234
38.237,32.594
38.138,33.003
38.042,33.456
37.948,33.947
37.854,34.471
37.761,35.018
37.666,35.579
37.569,36.144
37.47,36.705
37.369,37.25
37.265,37.774
37.159,38.267
37.051,38.726
36.941,39.146
36.829,39.524
36.716,39.86
36.603,40.153
36.491,40.403
36.381,40.61
36.274,40.778
36.17,40.907
36.071,41.001
35.979,41.062
35.896,41.092
35.823,41.094
35.762,41.073
35.714,41.031
35.681,40.972
35.662,40.901
35.656,40.818
35.662,40.729
35.678,40.634
35.701,40.536
35.729,40.437
35.761,40.336
35.794,40.232
35.827,40.126
35.857,40.017
35.882,39.906
35.904,39.795
35.921,39.683
35.933,39.572
35.939,39.461
35.938,39.35
35.932,39.24
35.919,39.129
35.901,39.017
35.877,38.9
35.847,38.778
35.812,38.65
35.773,38.516
35.729,38.377
35.681,38.233
35.63,38.085
35.574,37.933
35.514,37.78
35.449,37.629
35.379,37.481
35.303,37.337
35.221,37.197
35.133,37.06
35.04,36.928
34.943,36.8
34.843,36.679
34.741,36.563
34.638,36.454
34.535,36.351
34.432,36.254
34.33,36.162
34.231,36.075
34.132,35.993
34.035,35.917
33.941,35.847
33.849,35.783
33.762,35.726
33.679,35.675
33.599,35.632
33.522,35.594
33.448,35.562
33.376,35.536
33.306,35.517
33.237,35.504
33.169,35.498
33.101,35.5
33.034,35.507
32.969,35.52
32.904,35.538
32.839,35.558
32.774,35.579
32.71,35.598
32.647,35.614
32.586,35.626
32.525,35.634
32.463,35.636
32.401,35.633
32.338,35.624
32.275,35.61
32.212,35.592
32.148,35.57
32.085,35.546
32.024,35.52
31.964,35.493
31.908,35.466
31.855,35.438
31.806,35.409
31.758,35.378
31.714,35.345
31.673,35.308
31.635,35.266
31.601,35.218
31.57,35.163
31.542,35.101
31.517,35.033
31.494,34.96
31.474,34.882
31.456,34.802
31.441,34.719
31.427,34.634
31.417,34.549
31.408,34.464
31.403,34.381
31.4,34.299
31.399,34.22
31.398,34.143
31.397,34.066
31.397,33.991
31.397,33.915
31.397,33.84
31.397,33.763
31.397,33.684
31.395,33.601
31.393,33.515
31.391,33.425
31.39,33.333
31.39,33.238
31.391,33.141
31.393,33.046
31.396,32.953
31.401,32.864
31.406,32.782
31.412,32.705
31.419,32.633
31.426,32.567
31.434,32.505
31.443,32.447
31.452,32.392
31.461,32.339
31.469,32.284
31.475,32.224
31.479,32.16
31.482,32.092
31.482,32.023
31.48,31.954
31.474,31.889
31.467,31.829
31.457,31.777
31.446,31.733
31.437,31.696
31.43,31.666
31.43,31.642
31.441,31.623
31.468,31.608
31.516,31.597
31.592,31.588
31.703,31.581
31.858,31.573
32.064,31.566
32.328,31.556
32.653,31.545
33.041,31.533
33.49,31.519
33.997,31.507
34.553,31.494
35.149,31.481
35.773,31.468
36.412,31.454
37.054,31.439
37.683,31.425
38.288,31.411
38.857,31.399
39.381,31.388
39.851,31.379
40.264,31.374
40.615,31.375
40.906,31.383
41.136,31.4
41.308,31.429
41.425,31.473
41.492,31.534
41.515,31.617
41.5,31.727
41.452,31.866
41.376,32.04
41.278,32.255
41.162,32.512
41.03,32.816
40.887,33.167
40.736,33.564
40.58,34.003
40.42,34.479
40.258,34.986
40.096,35.515
39.933,36.056
39.772,36.601
39.612,37.141
39.454,37.668
39.3,38.175
39.148,38.655
39,39.104
38.856,39.516
38.714,39.888
38.575,40.218
38.438,40.503
38.302,40.745
38.168,40.944
38.034,41.102
37.9,41.22
37.766,41.302
37.634,41.352
37.502,41.373
37.373,41.368
37.247,41.34
37.125,41.291
37.007,41.226
36.891,41.147
36.777,41.056
36.663,40.956
36.549,40.849
36.437,40.736
36.325,40.618
36.215,40.499
36.106,40.378
35.998,40.257
35.894,40.136
35.795,40.014
35.702,39.892
35.615,39.769
35.536,39.646
35.464,39.521
35.402,39.396
35.349,39.269
35.307,39.142
35.275,39.007
35.253,38.857
35.239,38.691
35.235,38.513
35.243,38.328
35.264,38.14
35.296,37.954
35.338,37.776
35.387,37.606
35.442,37.449
35.499,37.304
35.558,37.172
35.616,37.053
35.67,36.945
35.718,36.845
35.759,36.751
35.792,36.66
35.816,36.572
35.832,36.484
35.84,36.396
35.842,36.308
35.837,36.221
35.827,36.137
35.812,36.059
35.791,35.987
35.766,35.922
35.737,35.864
35.702,35.812
35.661,35.767
35.616,35.728
35.565,35.695
35.511,35.667
35.452,35.645
35.389,35.63
35.32,35.622
35.247,35.622
35.168,35.629
35.086,35.641
35.001,35.657
34.912,35.675
34.821,35.694
34.729,35.712
34.635,35.73
34.541,35.746
34.447,35.759
34.355,35.769
34.265,35.775
34.177,35.777
34.092,35.774
34.011,35.766
33.936,35.753
33.865,35.735
33.798,35.712
33.735,35.685
33.675,35.653
33.617,35.616
33.561,35.573
33.505,35.525
33.449,35.471
33.394,35.412
33.339,35.347
33.282,35.278
33.224,35.207
33.164,35.136
33.101,35.065
33.037,34.997
32.971,34.93
32.904,34.865
32.835,34.801
32.766,34.738
32.697,34.674
32.628,34.61
32.559,34.543
32.49,34.473
32.421,34.4
32.353,34.325
32.287,34.245
32.222,34.162
32.158,34.076
32.096,33.988
32.036,33.901
31.98,33.816
31.926,33.735
31.875,33.658
31.826,33.585
31.78,33.515
31.739,33.449
31.702,33.385
31.67,33.325
31.641,33.266
31.617,33.209
31.599,33.152
31.587,33.094
31.581,33.036
31.581,32.977
31.587,32.916
31.596,32.852
31.61,32.787
31.626,32.722
31.644,32.659
31.661,32.597
31.678,32.538
31.694,32.481
31.708,32.426
31.719,32.376
31.728,32.328
31.733,32.285
31.736,32.245
31.736,32.208
31.736,32.174
31.734,32.143
31.73,32.113
31.724,32.084
31.718,32.054
31.711,32.026
31.704,31.999
31.698,31.974
31.693,31.953
31.688,31.934
31.685,31.918
31.681,31.905
31.677,31.894
31.673,31.883
31.669,31.872
31.666,31.86
31.665,31.846
31.668,31.831
31.681,31.814
31.706,31.795
31.751,31.773
31.821,31.749
31.923,31.724
32.064,31.699
32.252,31.674
32.493,31.65
32.791,31.628
33.148,31.609
33.563,31.596
34.031,31.59
34.547,31.595
35.102,31.614
35.687,31.651
36.29,31.709
36.899,31.794
37.502,31.913
38.086,32.07
38.641,32.272
39.158,32.521
39.628,32.821
40.048,33.173
40.412,33.575
40.719,34.024
40.967,34.513
41.157,35.035
41.284,35.581
41.352,36.142
41.366,36.708
41.332,37.268
41.261,37.814
41.162,38.337
41.043,38.832
40.912,39.293
40.775,39.716
40.639,40.097
40.507,40.432
40.38,40.722
40.261,40.966
40.147,41.165
40.036,41.323
39.928,41.443
39.819,41.529
39.707,41.584
39.592,41.614
39.472,41.623
39.348,41.616
39.219,41.596
39.086,41.564
38.951,41.524
38.814,41.477
38.676,41.424
38.54,41.366
38.405,41.305
38.271,41.238
38.139,41.166
38.007,41.093
37.874,41.025
37.742,40.965
37.61,40.91
37.48,40.857
37.35,40.801
37.222,40.738
37.096,40.666
36.971,40.584
36.85,40.488
36.732,40.38
36.616,40.259
36.503,40.126
36.392,39.983
36.283,39.833
36.176,39.676
36.072,39.515
35.972,39.353
35.876,39.194
35.787,39.041
35.704,38.894
35.63,38.755
35.565,38.624
35.511,38.499
35.469,38.381
35.438,38.267
35.419,38.156
35.41,38.048
35.409,37.942
35.416,37.837
35.431,37.734
35.451,37.633
35.477,37.533
35.507,37.434
35.541,37.335
35.579,37.236
35.619,37.137
35.661,37.037
35.703,36.938
35.742,36.84
35.778,36.744
35.808,36.652
35.831,36.567
35.846,36.49
35.853,36.423
35.853,36.365
35.846,36.315
35.833,36.272
35.813,36.236
35.787,36.206
35.755,36.179
35.717,36.156
35.674,36.134
35.624,36.114
35.569,36.094
35.507,36.075
35.44,36.057
35.367,36.04
35.289,36.024
35.207,36.011
35.121,36
35.032,35.991
34.94,35.982
34.848,35.97
34.757,35.955
34.666,35.936
34.577,35.912
34.488,35.883
34.401,35.85
34.316,35.813
34.234,35.772
34.154,35.729
34.075,35.683
33.997,35.634
33.919,35.583
33.842,35.528
33.765,35.47
33.69,35.409
33.616,35.344
33.544,35.275
33.473,35.204
33.404,35.131
33.337,35.058
33.271,34.984
33.206,34.911
33.143,34.839
33.082,34.768
33.023,34.698
32.966,34.631
32.909,34.567
32.855,34.505
32.802,34.443
32.751,34.38
32.7,34.314
32.65,34.245
32.599,34.174
32.548,34.1
32.496,34.026
32.443,33.95
32.39,33.875
32.338,33.801
32.285,33.729
32.232,33.66
32.18,33.591
32.128,33.523
32.077,33.456
32.029,33.389
31.982,33.325
31.938,33.261
31.896,33.198
31.856,33.136
31.817,33.073
31.781,33.011
31.746,32.948
31.712,32.885
31.679,32.823
31.647,32.762
31.616,32.702
31.588,32.645
31.563,32.59
31.54,32.537
31.52,32.486
31.502,32.438
31.487,32.392
31.476,32.347
31.468,32.303
31.463,32.261
31.463,32.221
31.464,32.183
31.468,32.146
31.472,32.112
31.477,32.08
31.481,32.051
31.484,32.024
31.487,32.001
31.489,31.979
31.491,31.96
31.493,31.941
31.494,31.923
31.495,31.905
31.496,31.887
31.497,31.87
31.498,31.855
31.499,31.839
31.499,31.821
31.496,31.802
31.492,31.779
31.485,31.754
31.477,31.725
31.468,31.693
31.458,31.661
31.449,31.628
31.441,31.596
31.432,31.567
31.424,31.542
31.416,31.524
31.409,31.517
31.404,31.524
31.401,31.551
31.402,31.602
31.409,31.682
31.423,31.796
31.451,31.948
31.497,32.145
31.57,32.389
31.678,32.682
31.832,33.023
32.04,33.411
32.313,33.841
32.655,34.31
33.069,34.812
33.552,35.339
34.1,35.883
34.702,36.434
35.35,36.985
36.029,37.525
36.726,38.047
37.428,38.544
38.12,39.011
38.788,39.443
39.421,39.84
40.008,40.198
40.542,40.518
41.015,40.8
41.426,41.042
41.773,41.246
42.056,41.413
42.277,41.545
42.44,41.645
42.548,41.715
42.606,41.758
42.621,41.778
42.598,41.777
42.544,41.759
42.464,41.727
42.364,41.681
42.248,41.624
42.119,41.556
41.98,41.479
41.834,41.395
41.684,41.305
41.531,41.209
41.38,41.109
41.232,41.007
41.087,40.902
40.946,40.797
40.809,40.693
40.674,40.59
40.541,40.488
40.41,40.387
40.28,40.287
40.15,40.187
40.02,40.085
39.89,39.981
39.761,39.874
39.631,39.766
39.502,39.656
39.375,39.543
39.251,39.429
39.132,39.311
39.017,39.188
38.905,39.061
38.797,38.93
38.691,38.795
38.585,38.656
38.48,38.512
38.373,38.365
38.263,38.217
38.15,38.069
38.032,37.924
37.91,37.782
37.787,37.646
37.663,37.515
37.539,37.392
37.418,37.275
37.299,37.165
37.185,37.063
37.076,36.969
36.973,36.883
36.876,36.807
36.786,36.74
36.703,36.683
36.627,36.635
36.559,36.596
36.499,36.563
36.448,36.537
36.405,36.517
36.37,36.5
36.343,36.486
36.324,36.475
36.311,36.465
36.305,36.457
36.305,36.451
36.31,36.445
36.319,36.438
36.332,36.429
36.345,36.417
36.359,36.401
36.373,36.383
36.385,36.361
36.395,36.336
36.402,36.308
36.405,36.277
36.404,36.243
36.399,36.204
36.39,36.161
36.376,36.112
36.358,36.058
36.333,35.999
36.303,35.937
36.265,35.872
36.222,35.803
36.172,35.731
36.117,35.657
36.058,35.582
35.995,35.507
35.928,35.433
35.86,35.36
35.79,35.29
35.718,35.221
35.646,35.154
35.572,35.088
35.496,35.021
35.419,34.955
35.34,34.885
35.26,34.813
35.179,34.738
35.096,34.659
35.011,34.577
34.924,34.492
34.837,34.403
34.749,34.313
34.661,34.223
34.573,34.133
34.484,34.045
34.395,33.959
34.306,33.875
34.218,33.794
34.131,33.716
34.045,33.64
33.96,33.566
33.875,33.493
33.792,33.42
33.709,33.347
33.628,33.273
33.549,33.198
33.471,33.123
33.395,33.048
33.321,32.974
33.249,32.902
33.179,32.83
33.111,32.76
33.045,32.692
32.982,32.624
32.924,32.56
32.87,32.499
32.82,32.441
32.773,32.385
32.729,32.328
32.688,32.269
32.648,32.207
32.611,32.143
32.574,32.077
32.537,32.009
32.5,31.941
32.461,31.875
32.421,31.813
32.381,31.756
32.34,31.704
32.3,31.657
32.261,31.616
32.222,31.582
32.184,31.555
32.146,31.533
32.108,31.518
32.07,31.505
32.031,31.495
31.993,31.487
31.955,31.479
31.92,31.471
31.885,31.463
31.852,31.453
31.821,31.442
31.791,31.429
31.765,31.416
31.741,31.403
31.719,31.392
31.701,31.383
31.685,31.378
31.671,31.376
31.66,31.378
31.651,31.381
31.644,31.385
31.638,31.388
31.634,31.388
31.63,31.384
31.627,31.377
31.624,31.363
31.623,31.345
31.624,31.322
31.627,31.296
31.632,31.269
31.638,31.243
31.646,31.223
31.655,31.213
31.664,31.22
31.672,31.249
31.679,31.308
31.683,31.402
31.686,31.537
31.686,31.718
31.683,31.949
31.678,32.233
31.671,32.57
31.663,32.956
31.653,33.388
31.643,33.861
31.634,34.367
31.627,34.9
31.626,35.451
31.635,36.009
31.658,36.567
31.698,37.114
31.761,37.642
31.855,38.144
31.989,38.615
32.173,39.049
32.414,39.444
32.718,39.799
33.09,40.113
33.532,40.385
34.042,40.616
34.612,40.808
35.235,40.962
35.898,41.082
36.587,41.171
37.289,41.233
37.987,41.272
38.669,41.29
39.321,41.29
39.932,41.275
40.492,41.247
40.995,41.207
41.435,41.156
41.808,41.095
42.113,41.022
42.35,40.94
42.523,40.849
42.635,40.75
42.692,40.645
42.7,40.536
42.664,40.424
42.591,40.31
42.49,40.196
42.367,40.083
42.227,39.97
42.077,39.858
41.921,39.746
41.762,39.634
41.604,39.522
41.449,39.41
41.296,39.298
41.145,39.186
40.996,39.076
40.847,38.967
40.699,38.861
40.548,38.756
40.392,38.652
40.23,38.546
40.063,38.436
39.892,38.322
39.72,38.202
39.55,38.077
39.385,37.947
39.226,37.811
39.073,37.674
38.929,37.535
38.792,37.399
38.662,37.267
38.54,37.14
38.424,37.018
38.313,36.904
38.207,36.797
38.103,36.699
38,36.61
37.898,36.532
37.796,36.465
37.692,36.41
37.586,36.367
37.478,36.333
37.366,36.308
37.251,36.288
37.134,36.27
37.016,36.254
36.897,36.239
36.777,36.224
36.657,36.21
36.539,36.197
36.424,36.185
36.314,36.176
36.211,36.168
36.116,36.163
36.031,36.16
35.957,36.157
35.894,36.153
35.842,36.146
35.801,36.133
35.768,36.104
35.744,36.059
35.726,35.998
35.716,35.926
35.711,35.847
35.712,35.764
35.719,35.683
35.73,35.604
35.745,35.53
35.764,35.463
35.786,35.403
35.809,35.352
35.832,35.308
35.854,35.27
35.874,35.237
35.892,35.207
35.905,35.18
35.912,35.153
35.914,35.124
35.909,35.092
35.9,35.053
35.884,35.008
35.861,34.956
35.832,34.897
35.795,34.831
35.753,34.756
35.703,34.673
35.648,34.582
35.586,34.485
35.517,34.382
35.442,34.276
35.36,34.167
35.273,34.06
35.182,33.955
35.088,33.855
34.992,33.76
34.896,33.672
34.797,33.587
34.69,33.507
34.574,33.43
34.453,33.355
34.33,33.281
34.208,33.206
34.091,33.129
33.981,33.052
33.882,32.973
33.795,32.895
33.719,32.817
33.656,32.741
33.603,32.667
33.558,32.597
33.521,32.53
33.489,32.467
33.46,32.407
33.431,32.349
33.401,32.293
33.368,32.24
33.332,32.189
33.292,32.141
33.247,32.094
33.198,32.048
33.145,32.001
33.087,31.953
33.027,31.904
32.965,31.856
32.902,31.809
32.838,31.766
32.771,31.728
32.704,31.694
32.637,31.666
32.572,31.643
32.509,31.625
32.449,31.612
32.392,31.603
32.337,31.599
32.286,31.596
32.238,31.593
32.192,31.59
32.149,31.584
32.109,31.579
32.073,31.573
32.039,31.569
32.009,31.565
31.981,31.563
31.953,31.562
31.926,31.562
31.9,31.561
31.874,31.558
31.849,31.553
31.823,31.546
31.798,31.539
31.774,31.531
31.751,31.523
31.73,31.512
31.71,31.5
31.692,31.485
31.675,31.47
31.66,31.455
31.647,31.443
31.635,31.435
31.624,31.431
31.614,31.433
31.604,31.444
31.594,31.467
31.585,31.504
31.576,31.561
31.569,31.642
31.564,31.753
31.559,31.899
31.554,32.084
31.55,32.311
31.545,32.584
31.538,32.903
31.531,33.269
31.522,33.678
31.513,34.127
31.506,34.608
31.503,35.113
31.503,35.636
31.503,36.167
31.501,36.697
31.495,37.218
31.485,37.723
31.469,38.205
31.447,38.66
31.418,39.082
31.383,39.469
31.343,39.816
31.299,40.121
31.255,40.385
31.211,40.605
31.17,40.786
31.136,40.929
31.112,41.037
31.103,41.112
31.114,41.159
31.15,41.18
31.221,41.179
31.336,41.158
31.506,41.12
31.742,41.067
32.05,41.003
32.435,40.929
32.897,40.847
33.435,40.761
34.041,40.671
34.705,40.577
35.414,40.481
36.154,40.382
36.908,40.279
37.66,40.173
38.395,40.063
39.097,39.949
39.754,39.83
40.354,39.71
40.889,39.588
41.355,39.466
41.747,39.345
42.066,39.224
42.313,39.104
42.491,38.983
42.605,38.86
42.663,38.736
42.672,38.61
42.639,38.481
42.571,38.352
42.475,38.223
42.357,38.095
42.22,37.968
42.07,37.842
41.911,37.715
41.745,37.586
41.575,37.455
41.403,37.322
41.231,37.191
41.06,37.061
40.889,36.937
40.72,36.819
40.554,36.711
40.389,36.615
40.227,36.531
40.066,36.459
39.906,36.397
39.745,36.347
39.583,36.306
39.42,36.276
39.257,36.255
39.094,36.242
38.932,36.234
38.772,36.23
38.615,36.228
38.462,36.229
38.314,36.234
38.172,36.242
38.034,36.253
37.9,36.268
37.768,36.286
37.638,36.305
37.508,36.325
37.376,36.343
37.242,36.359
37.107,36.369
36.971,36.375
36.835,36.374
36.701,36.367
36.571,36.354
36.444,36.336
36.324,36.315
36.211,36.29
36.106,36.262
36.009,36.229
35.921,36.19
35.84,36.146
35.768,36.096
35.705,36.041
35.653,35.98
35.61,35.913
35.577,35.841
35.554,35.765
35.542,35.685
35.541,35.602
35.551,35.518
35.57,35.432
35.597,35.344
35.63,35.255
35.667,35.166
35.706,35.076
35.746,34.987
35.784,34.896
35.82,34.803
35.853,34.707
35.882,34.609
35.906,34.509
35.927,34.408
35.944,34.307
35.957,34.207
35.965,34.111
35.968,34.02
35.965,33.935
35.955,33.857
35.939,33.783
35.915,33.716
35.885,33.654
35.849,33.596
35.806,33.541
35.756,33.487
35.699,33.432
35.637,33.377
35.571,33.32
35.499,33.261
35.423,33.2
35.343,33.137
35.258,33.072
35.171,33.007
35.081,32.942
34.988,32.877
34.894,32.813
34.797,32.748
34.7,32.684
34.603,32.622
34.507,32.564
34.413,32.508
34.322,32.454
34.233,32.403
34.146,32.352
34.063,32.301
33.984,32.25
33.908,32.199
33.835,32.148
33.765,32.096
33.697,32.045
33.632,31.997
33.568,31.952
33.506,31.911
33.444,31.875
33.383,31.842
33.323,31.814
33.261,31.79
33.2,31.772
33.138,31.757
33.075,31.747
33.012,31.74
32.948,31.736
32.884,31.732
32.821,31.729
32.758,31.725
32.696,31.72
32.636,31.714
32.578,31.708
32.522,31.701
32.469,31.692
32.419,31.683
32.372,31.673
32.328,31.662
32.288,31.65
32.252,31.64
32.221,31.63
32.195,31.624
32.173,31.624
32.154,31.634
32.137,31.66
32.122,31.706
32.109,31.779
32.097,31.883
32.087,32.025
32.076,32.21
32.064,32.441
32.053,32.718
32.042,33.043
32.031,33.413
32.019,33.826
32.007,34.277
31.993,34.761
31.98,35.269
31.966,35.794
31.953,36.327
31.94,36.858
31.927,37.378
31.916,37.881
31.907,38.359
31.898,38.805
31.891,39.215
31.882,39.588
31.872,39.922
31.861,40.217
31.849,40.472
31.835,40.69
31.819,40.872
31.8,41.02
31.78,41.138
31.758,41.226
31.736,41.29
31.712,41.33
31.686,41.349
31.66,41.351
31.633,41.338
31.609,41.312
31.59,41.275
31.578,41.228
31.576,41.173
31.589,41.112
31.623,41.045
31.682,40.972
31.775,40.893
31.911,40.806
32.099,40.712
32.348,40.611
32.662,40.502
33.047,40.388
33.5,40.268
34.019,40.144
34.597,40.017
35.227,39.888
35.895,39.759
36.587,39.63
37.29,39.503
37.989,39.378
38.669,39.256
39.317,39.139
39.921,39.024
40.47,38.912
40.957,38.801
41.376,38.69
41.725,38.578
42.005,38.466
42.217,38.351
42.367,38.234
42.46,38.113
42.504,37.986
42.506,37.856
42.472,37.727
42.409,37.606
42.322,37.493
42.218,37.389
42.101,37.291
41.974,37.199
41.84,37.112
41.698,37.029
41.549,36.946
41.393,36.864
41.232,36.781
41.066,36.699
40.895,36.617
40.72,36.538
40.543,36.463
40.364,36.393
40.186,36.329
40.011,36.274
39.838,36.228
39.669,36.191
39.505,36.163
39.347,36.144
39.196,36.132
39.051,36.125
38.914,36.124
38.782,36.126
38.656,36.13
38.535,36.136
38.418,36.142
38.301,36.148
38.185,36.151
38.067,36.153
37.947,36.151
37.826,36.145
37.703,36.136
37.578,36.122
37.452,36.103
37.324,36.078
37.195,36.046
37.065,36.006
36.935,35.958
36.805,35.904
36.678,35.845
36.553,35.781
36.432,35.714
36.317,35.643
36.208,35.571
36.109,35.496
36.02,35.421
35.943,35.343
35.879,35.265
35.826,35.185
35.784,35.105
35.752,35.024
35.728,34.941
35.714,34.858
35.707,34.774
35.707,34.69
35.714,34.607
35.727,34.523
35.745,34.44
35.768,34.358
35.795,34.276
35.823,34.195
35.852,34.114
35.88,34.034
35.908,33.952
35.933,33.868
35.956,33.781
35.973,33.692
35.985,33.601
35.992,33.509
35.993,33.417
35.989,33.326
35.98,33.237
35.964,33.149
35.943,33.065
35.917,32.983
35.886,32.904
35.851,32.829
35.81,32.756
35.763,32.686
35.711,32.618
35.654,32.551
35.59,32.482
35.521,32.413
35.446,32.342
35.368,32.271
35.286,32.201
35.202,32.134
35.114,32.07
35.025,32.009
34.934,31.953
34.842,31.901
34.75,31.852
34.659,31.807
34.568,31.763
34.476,31.721
34.384,31.681
34.294,31.643
34.205,31.605
34.117,31.567
34.033,31.527
33.951,31.488
33.872,31.449
33.797,31.411
33.724,31.374
33.652,31.338
33.581,31.303
33.509,31.272
33.438,31.244
33.368,31.22
33.299,31.201
33.231,31.187
33.163,31.177
33.096,31.172
33.029,31.169
32.963,31.167
32.898,31.164
32.833,31.158
32.769,31.148
32.707,31.136
32.647,31.121
32.589,31.104
32.534,31.086
32.482,31.069
32.433,31.057
32.386,31.054
32.342,31.064
32.3,31.09
32.261,31.138
32.224,31.212
32.189,31.318
32.154,31.461
32.118,31.646
32.081,31.878
32.042,32.159
32.001,32.493
31.959,32.878
31.916,33.313
31.873,33.794
31.83,34.313
31.788,34.864
31.747,35.437
31.706,36.025
31.669,36.617
31.635,37.205
31.605,37.779
31.58,38.332
31.558,38.856
31.539,39.347
31.524,39.798
31.511,40.209
31.5,40.575
31.489,40.897
31.48,41.176
31.47,41.413
31.462,41.609
31.453,41.766
31.444,41.886
31.436,41.972
31.43,42.028
31.427,42.057
31.425,42.064
31.426,42.053
31.427,42.025
31.429,41.984
31.431,41.932
31.434,41.87
31.436,41.801
31.438,41.723
31.44,41.639
31.44,41.548
31.438,41.451
31.435,41.35
31.429,41.248
31.421,41.144
31.413,41.04
31.406,40.937
31.4,40.836
31.399,40.735
31.404,40.635
31.418,40.536
31.445,40.437
31.489,40.34
31.554,40.243
31.649,40.147
31.781,40.047
31.959,39.944
32.19,39.834
32.484,39.719
32.845,39.597
33.277,39.471
33.778,39.34
34.345,39.205
34.968,39.063
35.638,38.917
36.343,38.768
37.069,38.616
37.802,38.465
38.529,38.315
39.233,38.169
39.904,38.029
40.53,37.896
41.101,37.771
41.611,37.655
42.053,37.546
42.425,37.443
42.727,37.345
42.959,37.252
43.124,37.163
43.227,37.079
43.274,37.001
43.272,36.928
43.23,36.863
43.156,36.803
43.058,36.749
42.941,36.701
42.812,36.657
42.674,36.617
42.531,36.581
42.385,36.549
42.239,36.521
42.092,36.497
41.947,36.477
41.802,36.46
41.658,36.445
41.513,36.432
41.368,36.418
41.221,36.4
41.073,36.377
40.923,36.348
40.772,36.312
40.62,36.27
40.467,36.223
40.316,36.171
40.166,36.114
40.018,36.053
39.874,35.989
39.733,35.921
39.597,35.851
39.464,35.78
39.336,35.708
39.211,35.637
39.088,35.567
38.967,35.498
38.846,35.43
38.723,35.361
38.599,35.29
38.474,35.216
38.347,35.139
38.218,35.059
38.087,34.976
37.957,34.887
37.829,34.794
37.704,34.696
37.582,34.595
37.462,34.492
37.347,34.387
37.235,34.282
37.129,34.179
37.028,34.08
36.933,33.986
36.845,33.897
36.762,33.812
36.687,33.731
36.618,33.655
36.556,33.582
36.501,33.511
36.454,33.442
36.414,33.372
36.381,33.3
36.356,33.226
36.337,33.148
36.324,33.067
36.315,32.981
36.309,32.89
36.306,32.796
36.303,32.701
36.3,32.608
36.297,32.518
36.294,32.432
36.29,32.352
36.285,32.278
36.278,32.21
36.269,32.148
36.257,32.092
36.242,32.039
36.226,31.988
36.207,31.937
36.185,31.887
36.157,31.838
36.123,31.787
36.084,31.737
36.04,31.687
35.991,31.638
35.938,31.59
35.881,31.543
35.82,31.496
35.756,31.451
35.69,31.407
35.623,31.366
35.552,31.329
35.479,31.294
35.402,31.264
35.322,31.236
35.239,31.213
35.154,31.193
35.067,31.178
34.979,31.165
34.891,31.155
34.804,31.146
34.718,31.138
34.633,31.13
34.55,31.122
34.467,31.114
34.385,31.105
34.302,31.096
34.219,31.087
34.136,31.078
34.054,31.068
33.973,31.058
33.894,31.048
33.818,31.037
33.745,31.028
33.674,31.02
33.606,31.015
33.54,31.01
33.475,31.006
33.411,31.001
33.347,30.996
33.283,30.988
33.22,30.979
33.157,30.968
33.096,30.956
33.035,30.943
32.976,30.931
32.918,30.922
32.863,30.92
32.81,30.93
32.757,30.959
32.705,31.015
32.653,31.104
32.601,31.235
32.55,31.414
32.499,31.647
32.448,31.936
32.399,32.284
32.352,32.689
32.306,33.148
32.262,33.654
32.219,34.201
32.178,34.781
32.139,35.386
32.101,36.006
32.066,36.63
32.031,37.248
31.999,37.848
31.964,38.421
31.923,38.959
31.874,39.457
31.819,39.909
31.761,40.313
31.704,40.67
31.65,40.979
31.604,41.243
31.566,41.463
31.538,41.642
31.52,41.782
31.511,41.883
31.511,41.949
31.519,41.984
31.533,41.993
31.552,41.983
31.573,41.958
31.596,41.923
31.619,41.881
31.642,41.833
31.662,41.782
31.678,41.726
31.69,41.665
31.697,41.6
31.699,41.531
31.696,41.455
31.69,41.373
31.679,41.282
31.666,41.183
31.65,41.075
31.632,40.959
31.612,40.837
31.591,40.709
31.57,40.575
31.549,40.438
31.53,40.296
31.515,40.15
31.505,40.002
31.502,39.853
31.511,39.704
31.536,39.554
31.582,39.407
31.654,39.261
31.761,39.117
31.911,38.975
32.112,38.835
32.373,38.696
32.7,38.56
33.096,38.426
33.562,38.295
34.093,38.166
34.682,38.039
35.319,37.913
35.992,37.787
36.688,37.66
37.392,37.532
38.091,37.403
38.773,37.275
39.428,37.148
40.045,37.025
40.615,36.907
41.132,36.795
41.592,36.691
41.99,36.593
42.326,36.504
42.599,36.424
42.81,36.353
42.961,36.291
43.057,36.238
43.102,36.192
43.101,36.152
43.061,36.119
42.987,36.093
42.888,36.074
42.769,36.062
42.635,36.057
42.491,36.056
42.34,36.061
42.184,36.068
42.026,36.077
41.867,36.084
41.709,36.088
41.552,36.086
41.396,36.078
41.242,36.062
41.088,36.038
40.932,36.004
40.775,35.962
40.615,35.912
40.453,35.857
40.292,35.797
40.131,35.734
39.972,35.669
39.816,35.604
39.665,35.539
39.518,35.475
39.378,35.412
39.243,35.35
39.115,35.287
38.993,35.221
38.874,35.151
38.76,35.077
38.647,34.999
38.535,34.916
38.423,34.827
38.31,34.734
38.194,34.638
38.077,34.539
37.958,34.44
37.837,34.34
37.717,34.242
37.597,34.145
37.48,34.052
37.365,33.962
37.253,33.875
37.146,33.791
37.043,33.71
36.946,33.632
36.858,33.556
36.778,33.482
36.71,33.407
36.652,33.33
36.607,33.251
36.575,33.169
36.555,33.086
36.548,33.001
36.549,32.914
36.558,32.828
36.571,32.743
36.59,32.661
36.611,32.583
36.635,32.51
36.66,32.442
36.685,32.378
36.708,32.318
36.729,32.26
36.749,32.203
36.766,32.146
36.779,32.087
36.789,32.026
36.794,31.964
36.795,31.901
36.792,31.839
36.786,31.779
36.776,31.722
36.761,31.67
36.743,31.621
36.719,31.577
36.691,31.537
36.657,31.499
36.618,31.464
36.574,31.428
36.524,31.394
36.468,31.359
36.407,31.326
36.338,31.293
36.26,31.264
36.17,31.239
36.066,31.218
35.95,31.201
35.825,31.187
35.698,31.176
35.571,31.167
35.45,31.16
35.338,31.155
35.236,31.149
35.144,31.143
35.061,31.135
34.986,31.124
34.918,31.111
34.855,31.095
34.796,31.076
34.738,31.055
34.681,31.031
34.623,31.006
34.564,30.981
34.504,30.956
34.441,30.932
34.376,30.911
34.31,30.892
34.241,30.875
34.17,30.861
34.096,30.848
34.02,30.834
33.942,30.82
33.862,30.804
33.783,30.786
33.703,30.767
33.625,30.753
33.548,30.752
33.472,30.766
33.399,30.799
33.327,30.848
33.256,30.913
33.186,30.994
33.118,31.094
33.051,31.217
32.985,31.369
32.92,31.555
32.856,31.781
32.795,32.053
32.736,32.373
32.678,32.743
32.622,33.163
32.566,33.628
32.513,34.135
32.46,34.675
32.408,35.242
32.357,35.826
32.307,36.419
32.258,37.011
32.212,37.59
32.169,38.148
32.129,38.674
32.092,39.164
32.058,39.611
32.027,40.011
32,40.363
31.976,40.666
31.955,40.921
31.938,41.129
31.925,41.293
31.916,41.416
31.91,41.502
31.906,41.556
31.903,41.582
31.901,41.585
31.899,41.567
31.897,41.532
31.895,41.482
31.892,41.417
31.888,41.339
31.883,41.251
31.876,41.153
31.868,41.049
31.859,40.939
31.849,40.826
31.837,40.71
31.825,40.592
31.813,40.473
31.801,40.352
31.789,40.229
31.776,40.104
31.763,39.977
31.752,39.847
31.742,39.715
31.736,39.583
31.733,39.451
31.735,39.32
31.744,39.191
31.761,39.064
31.79,38.939
31.835,38.817
31.903,38.694
32.002,38.571
32.138,38.444
32.32,38.314
32.557,38.181
32.854,38.044
33.215,37.903
33.641,37.759
34.129,37.612
34.676,37.464
35.272,37.318
35.909,37.173
36.575,37.03
37.256,36.89
37.941,36.753
38.616,36.62
39.268,36.494
39.887,36.376
40.462,36.266
40.989,36.167
41.463,36.079
41.879,36.001
42.236,35.933
42.533,35.874
42.77,35.825
42.95,35.784
43.075,35.752
43.151,35.729
43.182,35.714
43.174,35.707
43.131,35.705
43.06,35.708
42.965,35.713
42.851,35.72
42.723,35.726
42.583,35.733
42.436,35.738
42.285,35.742
42.131,35.745
41.975,35.745
41.818,35.743
41.661,35.737
41.502,35.728
41.341,35.713
41.178,35.693
41.011,35.669
40.841,35.642
40.668,35.61
40.494,35.575
40.321,35.537
40.15,35.497
39.983,35.452
39.823,35.405
39.67,35.354
39.526,35.299
39.389,35.241
39.257,35.179
39.13,35.115
39.006,35.047
38.883,34.978
38.76,34.905
38.635,34.832
38.506,34.757
38.371,34.682
38.229,34.608
38.082,34.533
37.931,34.457
37.777,34.381
37.624,34.303
37.472,34.223
37.324,34.142
37.181,34.059
37.047,33.974
36.922,33.887
36.809,33.8
36.708,33.713
36.621,33.626
36.547,33.54
36.488,33.454
36.441,33.367
36.407,33.281
36.386,33.196
36.377,33.111
36.378,33.029
36.386,32.949
36.401,32.872
36.421,32.797
36.443,32.725
36.467,32.656
36.49,32.591
36.511,32.529
36.53,32.47
36.545,32.415
36.558,32.363
36.568,32.312
36.575,32.263
36.576,32.214
36.572,32.167
36.562,32.12
36.545,32.074
36.522,32.028
36.493,31.984
36.457,31.941
36.416,31.899
36.371,31.861
36.323,31.824
36.273,31.79
36.221,31.759
36.166,31.731
36.109,31.704
36.049,31.677
35.987,31.65
35.923,31.622
35.855,31.593
35.783,31.565
35.708,31.539
35.629,31.516
35.547,31.495
35.46,31.477
35.371,31.462
35.279,31.45
35.186,31.441
35.091,31.433
34.994,31.426
34.897,31.417
34.799,31.406
34.701,31.391
34.603,31.372
34.505,31.348
34.408,31.321
34.311,31.291
34.218,31.26
34.129,31.228
34.045,31.197
33.966,31.166
33.892,31.137
33.82,31.108
33.751,31.082
33.682,31.059
33.613,31.04
33.544,31.027
33.474,31.024
33.405,31.033
33.338,31.059
33.273,31.107
33.21,31.182
33.15,31.291
33.094,31.44
33.041,31.635
32.991,31.881
32.943,32.181
32.894,32.537
32.846,32.947
32.796,33.41
32.746,33.92
32.696,34.471
32.645,35.055
32.595,35.66
32.544,36.276
32.493,36.891
32.442,37.496
32.391,38.081
32.339,38.636
32.287,39.154
32.236,39.629
32.186,40.057
32.137,40.436
32.09,40.764
32.045,41.042
32.002,41.272
31.962,41.458
31.923,41.603
31.885,41.713
31.849,41.792
31.813,41.843
31.778,41.87
31.744,41.877
31.71,41.867
31.678,41.842
31.649,41.803
31.622,41.751
31.597,41.687
31.575,41.611
31.555,41.526
31.536,41.431
31.52,41.326
31.505,41.214
31.492,41.093
31.481,40.964
31.471,40.827
31.462,40.684
31.454,40.534
31.447,40.377
31.44,40.215
31.433,40.049
31.427,39.882
31.421,39.714
31.416,39.55
31.411,39.388
31.406,39.232
31.401,39.081
31.397,38.936
31.393,38.796
31.39,38.659
31.387,38.524
31.384,38.39
31.38,38.257
31.375,38.123
31.368,37.99
31.359,37.856
31.35,37.721
31.34,37.583
31.33,37.442
31.322,37.298
31.317,37.152
31.316,37.004
31.322,36.857
31.338,36.713
31.371,36.574
31.427,36.444
31.514,36.322
31.64,36.208
31.814,36.104
32.047,36.009
32.346,35.924
32.717,35.849
33.164,35.785
33.683,35.733
34.271,35.693
34.919,35.666
35.616,35.652
36.348,35.649
37.1,35.655
37.856,35.667
38.598,35.682
39.314,35.699
39.988,35.717
40.613,35.735
41.179,35.752
41.683,35.768
42.122,35.781
42.494,35.791
42.802,35.797
43.047,35.8
43.233,35.798
43.363,35.791
43.445,35.779
43.482,35.763
43.481,35.74
43.445,35.713
43.378,35.678
43.284,35.637
43.167,35.589
43.032,35.535
42.883,35.474
42.723,35.407
42.556,35.336
42.385,35.261
42.212,35.184
42.039,35.105
41.869,35.025
41.702,34.945
41.539,34.863
41.381,34.779
41.227,34.693
41.078,34.604
40.932,34.512
40.789,34.417
40.647,34.318
40.506,34.217
40.365,34.113
40.225,34.008
40.083,33.903
39.94,33.8
39.796,33.7
39.65,33.602
39.503,33.507
39.356,33.415
39.21,33.324
39.066,33.233
38.923,33.142
38.782,33.051
38.643,32.962
38.507,32.873
38.373,32.786
38.24,32.702
38.11,32.62
37.983,32.541
37.857,32.466
37.733,32.393
37.614,32.322
37.498,32.253
37.388,32.184
37.285,32.114
37.188,32.044
37.098,31.972
37.015,31.899
36.94,31.826
36.872,31.753
36.813,31.681
36.761,31.61
36.717,31.541
36.68,31.474
36.652,31.409
36.631,31.346
36.618,31.288
36.611,31.234
36.611,31.184
36.616,31.136
36.626,31.091
36.641,31.048
36.66,31.008
36.68,30.973
36.702,30.942
36.722,30.916
36.739,30.894
36.752,30.875
36.758,30.858
36.757,30.841
36.748,30.824
36.73,30.804
36.704,30.783
36.67,30.762
36.629,30.739
36.58,30.717
36.525,30.697
36.463,30.677
36.394,30.66
36.321,30.646
36.242,30.635
36.16,30.628
36.077,30.623
35.993,30.621
35.908,30.618
35.822,30.614
35.735,30.608
35.647,30.599
35.559,30.587
35.471,30.575
35.381,30.563
35.291,30.553
35.2,30.547
35.107,30.546
35.014,30.553
34.92,30.573
34.826,30.609
34.73,30.666
34.633,30.749
34.535,30.862
34.437,31.012
34.34,31.204
34.243,31.444
34.146,31.738
34.05,32.086
33.955,32.491
33.861,32.95
33.768,33.462
33.674,34.018
33.581,34.612
33.489,35.234
33.399,35.872
33.31,36.516
33.223,37.156
33.138,37.782
33.054,38.385
32.973,38.958
32.894,39.492
32.819,39.983
32.748,40.428
32.679,40.823
32.614,41.168
32.552,41.463
32.493,41.709
32.437,41.907
32.386,42.061
32.338,42.173
32.293,42.248
32.252,42.29
32.212,42.304
32.174,42.294
32.137,42.265
32.1,42.223
32.061,42.168
32.021,42.103
31.98,42.03
31.938,41.949
31.896,41.862
31.853,41.771
31.81,41.676
31.768,41.578
31.728,41.474
31.691,41.366
31.656,41.254
31.623,41.137
31.593,41.016
31.565,40.889
31.54,40.756
31.517,40.617
31.497,40.471
31.48,40.321
31.466,40.165
31.455,40.005
31.447,39.841
31.44,39.675
31.435,39.51
31.429,39.347
31.423,39.188
31.415,39.032
31.407,38.88
31.396,38.73
31.384,38.583
31.371,38.437
31.358,38.292
31.344,38.148
31.33,38.005
31.316,37.865
31.301,37.727
31.286,37.592
31.271,37.458
31.257,37.326
31.243,37.196
31.231,37.068
31.219,36.943
31.208,36.824
31.198,36.709
31.188,36.6
31.177,36.497
31.164,36.402
31.15,36.316
31.135,36.238
31.12,36.169
31.105,36.109
31.089,36.057
31.073,36.016
31.057,35.984
31.043,35.962
31.029,35.951
31.019,35.948
31.013,35.952
31.015,35.963
31.028,35.977
31.056,35.993
31.104,36.006
31.179,36.016
31.291,36.021
31.449,36.021
31.662,36.015
31.939,36.003
32.285,35.984
32.701,35.96
33.187,35.929
33.741,35.894
34.354,35.855
35.017,35.813
35.717,35.768
36.441,35.72
37.176,35.671
37.909,35.621
38.625,35.569
39.312,35.515
39.959,35.459
40.557,35.397
41.097,35.331
41.573,35.258
41.982,35.181
42.322,35.097
42.592,35.009
42.795,34.917
42.936,34.822
43.02,34.726
43.053,34.628
43.042,34.528
42.993,34.427
42.915,34.326
42.815,34.225
42.697,34.127
42.568,34.032
42.431,33.939
42.29,33.849
42.145,33.76
41.999,33.673
41.851,33.586
41.701,33.498
41.548,33.408
41.393,33.314
41.237,33.219
41.081,33.123
40.924,33.028
40.766,32.936
40.608,32.849
40.449,32.766
40.291,32.689
40.136,32.616
39.983,32.548
39.834,32.482
39.688,32.419
39.546,32.356
39.41,32.291
39.278,32.224
39.15,32.154
39.025,32.082
38.901,32.006
38.776,31.928
38.649,31.85
38.521,31.771
38.39,31.693
38.256,31.616
38.121,31.541
37.984,31.469
37.847,31.401
37.71,31.335
37.574,31.271
37.442,31.209
37.312,31.15
37.188,31.095
37.069,31.045
36.957,31
36.854,30.962
36.761,30.93
36.679,30.904
36.609,30.884
36.551,30.869
36.504,30.855
36.467,30.844
36.438,30.833
36.418,30.822
36.405,30.81
36.4,30.796
36.399,30.78
36.403,30.761
36.41,30.741
36.421,30.719
36.435,30.697
36.45,30.676
36.467,30.657
36.483,30.639
36.499,30.624
36.513,30.612
36.524,30.602
36.533,30.592
36.537,30.583
36.536,30.573
36.528,30.562
36.514,30.551
36.493,30.539
36.465,30.526
36.429,30.512
36.387,30.5
36.338,30.49
36.282,30.483
36.221,30.48
36.154,30.483
36.081,30.492
36.003,30.512
35.92,30.548
35.833,30.605
35.742,30.691
35.65,30.814
35.556,30.983
35.461,31.204
35.365,31.484
35.266,31.824
35.166,32.226
35.063,32.687
34.96,33.205
34.856,33.774
34.752,34.385
34.647,35.03
34.542,35.698
34.438,36.378
34.336,37.06
34.235,37.733
34.138,38.385
34.043,39.005
33.953,39.585
33.867,40.116
33.785,40.593
33.707,41.016
33.632,41.382
33.56,41.692
33.492,41.948
33.428,42.154
33.366,42.312
33.308,42.43
33.251,42.515
33.196,42.571
33.141,42.602
33.086,42.61
33.03,42.596
32.972,42.562
32.914,42.508
32.855,42.438
32.797,42.351
32.74,42.249
32.686,42.135
32.635,42.011
32.585,41.881
32.537,41.745
32.491,41.606
32.446,41.464
32.405,41.32
32.367,41.177
32.333,41.033
32.304,40.891
32.279,40.749
32.258,40.608
32.239,40.468
32.223,40.33
32.21,40.193
32.197,40.058
32.186,39.922
32.173,39.785
32.16,39.646
32.146,39.505
32.131,39.361
32.116,39.214
32.102,39.063
32.09,38.908
32.079,38.751
32.071,38.592
32.063,38.432
32.056,38.273
32.047,38.114
32.038,37.956
32.028,37.801
32.016,37.649
32.004,37.501
31.991,37.359
31.977,37.222
31.964,37.091
31.951,36.964
31.938,36.843
31.924,36.726
31.911,36.615
31.898,36.509
31.884,36.409
31.869,36.316
31.853,36.231
31.835,36.156
31.816,36.091
31.796,36.034
31.776,35.987
31.754,35.949
31.733,35.921
31.71,35.902
31.688,35.892
31.666,35.888
31.646,35.889
31.629,35.895
31.618,35.904
31.616,35.914
31.627,35.924
31.655,35.932
31.706,35.938
31.786,35.94
31.902,35.938
32.064,35.931
32.28,35.921
32.554,35.906
32.893,35.886
33.299,35.861
33.77,35.831
34.304,35.795
34.893,35.753
35.527,35.705
36.196,35.652
36.886,35.594
37.583,35.532
38.275,35.465
38.947,35.395
39.586,35.322
40.183,35.246
40.728,35.168
41.215,35.087
41.638,35.003
41.997,34.916
42.29,34.826
42.522,34.734
42.695,34.64
42.815,34.544
42.888,34.446
42.918,34.345
42.912,34.244
42.874,34.142
42.81,34.04
42.725,33.94
42.623,33.842
42.506,33.746
42.376,33.654
42.235,33.566
42.085,33.482
41.926,33.403
41.762,33.326
41.592,33.251
41.419,33.177
41.244,33.103
41.07,33.027
40.896,32.948
40.724,32.864
40.555,32.777
40.39,32.689
40.229,32.6
40.074,32.514
39.923,32.431
39.777,32.352
39.633,32.278
39.493,32.208
39.354,32.141
39.218,32.078
39.082,32.016
38.946,31.955
38.808,31.894
38.667,31.833
38.525,31.772
38.379,31.712
38.231,31.652
38.081,31.593
37.93,31.538
37.778,31.487
37.627,31.441
37.477,31.401
37.33,31.365
37.185,31.334
37.046,31.306
36.914,31.28
36.789,31.255
36.673,31.23
36.567,31.204
36.472,31.177
36.388,31.149
36.315,31.121
36.254,31.093
36.202,31.067
36.159,31.042
36.124,31.021
36.097,31.003
36.078,30.988
36.066,30.976
36.06,30.966
36.058,30.957
36.06,30.95
36.066,30.943
36.076,30.937
36.087,30.932
36.1,30.927
36.114,30.923
36.129,30.919
36.144,30.915
36.16,30.912
36.176,30.907
36.191,30.903
36.202,30.898
36.21,30.894
36.214,30.888
36.213,30.883
36.207,30.876
36.195,30.87
36.177,30.864
36.153,30.859
36.122,30.857
36.083,30.856
36.036,30.859
35.982,30.867
35.92,30.882
35.851,30.909
35.774,30.952
35.689,31.012
35.597,31.098
35.499,31.216
35.395,31.377
35.288,31.588
35.18,31.858
35.072,32.192
34.967,32.594
34.863,33.063
34.762,33.595
34.663,34.183
34.566,34.816
34.47,35.483
34.376,36.17
34.283,36.866
34.192,37.556
34.102,38.229
34.015,38.873
33.93,39.476
33.849,40.033
33.772,40.536
33.698,40.982
33.628,41.371
33.56,41.703
33.495,41.977
33.432,42.197
33.37,42.367
33.308,42.491
33.245,42.576
33.182,42.624
33.12,42.641
33.058,42.631
32.996,42.598
32.935,42.545
32.873,42.474
32.813,42.389
32.753,42.291
32.693,42.186
32.634,42.074
32.576,41.959
32.519,41.842
32.464,41.723
32.411,41.6
32.36,41.472
32.311,41.341
32.262,41.206
32.213,41.068
32.166,40.928
32.119,40.784
32.073,40.639
32.028,40.491
31.986,40.341
31.946,40.19
31.91,40.037
31.875,39.883
31.843,39.73
31.813,39.578
31.785,39.428
31.759,39.278
31.734,39.129
31.71,38.978
31.688,38.825
31.667,38.671
31.648,38.517
31.63,38.363
31.613,38.208
31.599,38.054
31.586,37.899
31.574,37.744
31.563,37.587
31.553,37.431
31.543,37.275
31.534,37.122
31.525,36.973
31.516,36.831
31.507,36.698
31.498,36.574
31.489,36.459
31.48,36.354
31.471,36.258
31.463,36.173
31.455,36.1
31.446,36.038
31.436,35.988
31.425,35.95
31.412,35.923
31.399,35.906
31.383,35.898
31.367,35.896
31.349,35.897
31.33,35.898
31.31,35.9
31.289,35.903
31.266,35.906
31.243,35.911
31.221,35.917
31.201,35.923
31.186,35.929
31.176,35.933
31.176,35.932
31.189,35.924
31.222,35.907
31.279,35.876
31.368,35.832
31.496,35.777
31.674,35.711
31.909,35.637
32.209,35.555
32.579,35.469
33.022,35.382
33.537,35.295
34.12,35.209
34.764,35.125
35.458,35.044
36.188,34.965
36.942,34.889
37.703,34.815
38.458,34.742
39.19,34.668
39.888,34.592
40.54,34.514
41.135,34.432
41.666,34.348
42.13,34.263
42.523,34.177
42.848,34.09
43.105,34.003
43.3,33.916
43.437,33.827
43.523,33.738
43.564,33.647
43.565,33.554
43.534,33.458
43.476,33.36
43.396,33.26
43.299,33.159
43.188,33.057
43.065,32.955
42.931,32.854
42.79,32.755
42.644,32.659
42.493,32.567
42.34,32.479
42.186,32.396
42.032,32.316
41.879,32.237
41.728,32.16
41.579,32.083
41.434,32.006
41.293,31.93
41.154,31.856
41.019,31.785
40.888,31.716
40.758,31.649
40.629,31.586
40.502,31.524
40.375,31.465
40.249,31.408
40.123,31.352
39.996,31.299
39.869,31.247
39.74,31.197
39.611,31.148
39.481,31.102
39.351,31.057
39.219,31.014
39.087,30.973
38.954,30.934
38.82,30.896
38.685,30.86
38.549,30.823
38.412,30.787
38.277,30.75
38.142,30.712
38.01,30.675
37.882,30.639
37.758,30.605
37.637,30.573
37.522,30.546
37.411,30.523
37.306,30.505
37.206,30.494
37.112,30.489
37.026,30.49
36.949,30.496
36.882,30.505
36.826,30.515
36.779,30.524
36.742,30.53
36.715,30.533
36.696,30.534
36.685,30.531
36.681,30.524
36.682,30.515
36.687,30.504
36.695,30.493
36.705,30.483
36.715,30.475
36.724,30.47
36.731,30.467
36.733,30.468
36.731,30.472
36.722,30.478
36.707,30.487
36.684,30.498
36.653,30.512
36.613,30.531
36.565,30.558
36.509,30.594
36.445,30.642
36.374,30.708
36.295,30.797
36.21,30.915
36.12,31.069
36.026,31.266
35.929,31.512
35.829,31.814
35.727,32.176
35.624,32.599
35.52,33.081
35.417,33.618
35.315,34.203
35.215,34.826
35.115,35.475
35.015,36.14
34.916,36.808
34.816,37.467
34.719,38.107
34.624,38.717
34.532,39.291
34.444,39.819
34.359,40.297
34.276,40.719
34.196,41.083
34.118,41.387
34.042,41.633
33.969,41.824
33.897,41.964
33.826,42.056
33.757,42.108
33.689,42.124
33.622,42.11
33.556,42.072
33.49,42.013
33.424,41.94
33.359,41.854
33.294,41.759
33.228,41.657
33.163,41.549
33.098,41.436
33.034,41.318
32.972,41.194
32.91,41.065
32.848,40.931
32.785,40.79
32.723,40.642
32.66,40.487
32.599,40.326
32.537,40.159
32.476,39.987
32.414,39.811
32.354,39.631
32.295,39.448
32.238,39.262
32.182,39.073
32.127,38.884
32.072,38.697
32.018,38.514
31.966,38.335
31.915,38.161
31.865,37.993
31.819,37.829
31.774,37.669
31.731,37.512
31.69,37.356
31.647,37.2
31.605,37.044
31.562,36.888
31.519,36.733
31.477,36.58
31.436,36.428
31.397,36.279
31.36,36.134
31.327,35.993
31.297,35.857
31.269,35.726
31.244,35.601
31.221,35.484
31.202,35.375
31.185,35.277
31.172,35.191
31.162,35.118
31.156,35.06
31.152,35.016
31.151,34.987
31.153,34.972
31.161,34.968
31.177,34.974
31.201,34.988
31.23,35.009
31.261,35.035
31.289,35.065
31.313,35.096
31.329,35.128
31.336,35.158
31.334,35.185
31.321,35.209
31.3,35.229
31.269,35.245
31.232,35.256
31.191,35.261
31.147,35.26
31.102,35.252
31.058,35.239
31.016,35.221
30.979,35.196
30.947,35.167
30.922,35.133
30.904,35.095
30.893,35.055
30.891,35.014
30.898,34.972
30.916,34.929
30.95,34.884
31.003,34.837
31.082,34.787
31.196,34.734
31.354,34.676
31.563,34.615
31.83,34.551
32.162,34.483
32.562,34.412
33.032,34.338
33.568,34.263
34.166,34.187
34.819,34.112
35.516,34.036
36.246,33.959
36.995,33.881
37.749,33.799
38.495,33.712
39.218,33.622
39.907,33.528
40.55,33.43
41.14,33.329
41.668,33.229
42.13,33.129
42.523,33.033
42.849,32.94
43.108,32.851
43.305,32.766
43.444,32.684
43.53,32.605
43.57,32.528
43.569,32.454
43.534,32.381
43.469,32.309
43.382,32.238
43.275,32.168
43.154,32.097
43.021,32.027
42.879,31.956
42.731,31.885
42.576,31.814
42.417,31.744
42.256,31.675
42.093,31.607
41.928,31.542
41.762,31.48
41.595,31.424
41.427,31.374
41.261,31.332
41.098,31.295
40.939,31.265
40.785,31.238
40.635,31.215
40.49,31.194
40.35,31.174
40.216,31.153
40.084,31.134
39.954,31.115
39.824,31.097
39.694,31.08
39.564,31.065
39.433,31.051
39.301,31.039
39.167,31.03
39.032,31.027
38.896,31.03
38.76,31.037
38.622,31.047
38.483,31.059
38.343,31.071
38.204,31.081
38.066,31.087
37.929,31.089
37.794,31.085
37.662,31.076
37.534,31.062
37.412,31.045
37.295,31.023
37.186,30.998
37.083,30.972
36.989,30.947
36.901,30.924
36.822,30.905
36.752,30.892
36.689,30.887
36.636,30.893
36.59,30.913
36.553,30.952
36.523,31.015
36.502,31.107
36.487,31.234
36.479,31.404
36.475,31.622
36.476,31.892
36.481,32.216
36.49,32.594
36.503,33.026
36.516,33.508
36.53,34.036
36.541,34.605
36.55,35.204
36.555,35.823
36.556,36.451
36.552,37.075
36.543,37.683
36.528,38.265
36.508,38.812
36.48,39.314
36.445,39.768
36.403,40.17
36.352,40.517
36.294,40.809
36.228,41.045
36.155,41.229
36.077,41.362
35.992,41.451
35.903,41.499
35.809,41.512
35.71,41.495
35.608,41.45
35.503,41.381
35.396,41.293
35.288,41.187
35.179,41.068
35.068,40.939
34.956,40.802
34.843,40.659
34.732,40.513
34.622,40.364
34.514,40.214
34.409,40.063
34.308,39.911
34.212,39.758
34.123,39.605
34.04,39.45
33.962,39.295
33.887,39.139
33.816,38.98
33.747,38.818
33.681,38.654
33.614,38.488
33.548,38.321
33.482,38.153
33.415,37.985
33.347,37.817
33.278,37.648
33.208,37.478
33.138,37.307
33.069,37.134
33.001,36.96
32.934,36.786
32.869,36.614
32.805,36.447
32.743,36.285
32.683,36.129
32.624,35.978
32.567,35.832
32.511,35.69
32.457,35.553
32.404,35.422
32.354,35.297
32.306,35.178
32.26,35.065
32.215,34.959
32.172,34.86
32.131,34.767
32.091,34.681
32.051,34.6
32.01,34.528
31.97,34.465
31.929,34.412
31.888,34.371
31.848,34.342
31.809,34.326
31.771,34.323
31.735,34.333
31.7,34.354
31.669,34.385
31.639,34.423
31.612,34.466
31.588,34.514
31.566,34.564
31.547,34.615
31.529,34.663
31.514,34.708
31.5,34.747
31.487,34.779
31.476,34.805
31.466,34.824
31.455,34.837
31.444,34.845
31.433,34.848
31.421,34.846
31.408,34.841
31.396,34.833
31.384,34.821
31.373,34.808
31.363,34.792
31.354,34.773
31.344,34.752
31.334,34.726
31.323,34.694
31.31,34.657
31.295,34.613
31.28,34.562
31.264,34.505
31.248,34.441
31.232,34.372
31.217,34.299
31.202,34.222
31.186,34.144
31.17,34.065
31.152,33.985
31.133,33.905
31.114,33.825
31.096,33.748
31.081,33.674
31.07,33.603
31.065,33.535
31.07,33.469
31.088,33.403
31.124,33.337
31.184,33.269
31.275,33.199
31.407,33.126
31.587,33.05
31.824,32.972
32.125,32.893
32.496,32.815
32.939,32.738
33.451,32.663
34.028,32.589
34.662,32.519
35.342,32.452
36.056,32.389
36.789,32.329
37.528,32.273
38.257,32.22
38.963,32.171
39.634,32.124
40.259,32.078
40.831,32.032
41.342,31.987
41.788,31.941
42.168,31.896
42.481,31.85
42.729,31.804
42.913,31.756
43.039,31.709
43.111,31.661
43.136,31.615
43.12,31.57
43.067,31.526
42.985,31.484
42.876,31.445
42.745,31.408
42.597,31.374
42.436,31.344
42.265,31.317
42.088,31.293
41.907,31.27
41.724,31.249
41.541,31.227
41.359,31.205
41.18,31.182
41.005,31.157
40.833,31.131
40.663,31.106
40.495,31.084
40.328,31.066
40.163,31.054
39.999,31.05
39.838,31.057
39.679,31.076
39.524,31.11
39.371,31.161
39.222,31.235
39.076,31.338
38.933,31.475
38.791,31.654
38.651,31.88
38.511,32.158
38.37,32.49
38.227,32.876
38.083,33.315
37.936,33.803
37.789,34.335
37.64,34.902
37.488,35.497
37.329,36.109
37.166,36.728
37.002,37.343
36.84,37.943
36.684,38.516
36.536,39.053
36.401,39.547
36.28,39.992
36.174,40.385
36.086,40.721
36.015,41.001
35.96,41.225
35.92,41.397
35.896,41.522
35.886,41.605
35.888,41.65
35.901,41.664
35.923,41.65
35.952,41.612
35.985,41.555
36.02,41.481
36.055,41.393
36.089,41.293
36.122,41.182
36.151,41.064
36.176,40.94
36.197,40.812
36.213,40.68
36.224,40.546
36.229,40.411
36.227,40.276
36.219,40.139
36.204,40.002
36.182,39.862
36.153,39.719
36.118,39.572
36.077,39.419
36.029,39.262
35.974,39.101
35.914,38.938
35.848,38.772
35.779,38.607
35.706,38.44
35.629,38.274
35.55,38.106
35.468,37.936
35.385,37.763
35.299,37.588
35.212,37.412
35.124,37.238
35.035,37.067
34.947,36.9
34.859,36.738
34.771,36.58
34.683,36.425
34.595,36.273
34.507,36.124
34.417,35.978
34.326,35.837
34.235,35.702
34.143,35.579
34.05,35.468
33.957,35.37
33.864,35.285
33.772,35.214
33.68,35.158
33.589,35.116
33.5,35.087
33.412,35.069
33.327,35.062
33.244,35.063
33.162,35.072
33.082,35.088
33.002,35.111
32.923,35.14
32.844,35.173
32.767,35.209
32.691,35.245
32.617,35.282
32.544,35.318
32.472,35.353
32.401,35.387
32.331,35.419
32.263,35.448
32.196,35.474
32.132,35.495
32.071,35.51
32.013,35.521
31.957,35.525
31.904,35.525
31.853,35.52
31.804,35.511
31.759,35.498
31.717,35.479
31.677,35.456
31.639,35.427
31.603,35.394
31.567,35.355
31.533,35.31
31.5,35.259
31.469,35.202
31.441,35.141
31.415,35.077
31.391,35.008
31.369,34.936
31.348,34.861
31.328,34.781
31.309,34.698
31.291,34.614
31.275,34.528
31.259,34.442
31.246,34.357
31.233,34.275
31.223,34.197
31.214,34.122
31.207,34.05
31.202,33.981
31.199,33.913
31.197,33.845
31.195,33.776
31.192,33.708
31.19,33.64
31.186,33.573
31.182,33.506
31.177,33.439
31.172,33.374
31.167,33.31
31.16,33.248
31.153,33.187
31.147,33.127
31.142,33.071
31.136,33.018
31.131,32.968
31.126,32.921
31.12,32.878
31.114,32.836
31.107,32.799
31.099,32.764
31.09,32.731
31.08,32.7
31.069,32.671
31.057,32.641
31.043,32.611
31.029,32.58
31.014,32.548
31.001,32.515
30.99,32.482
30.983,32.448
30.983,32.414
30.994,32.379
31.021,32.343
31.065,32.306
31.128,32.268
31.217,32.229
31.342,32.19
31.514,32.151
31.743,32.111
32.038,32.073
32.406,32.037
32.853,32.004
33.376,31.975
33.972,31.952
34.633,31.937
35.347,31.934
36.101,31.946
36.88,31.979
37.667,32.039
38.447,32.131
39.204,32.263
39.923,32.439
40.593,32.665
41.203,32.946
41.746,33.283
42.218,33.676
42.617,34.122
42.943,34.616
43.198,35.151
43.387,35.719
43.514,36.311
43.585,36.918
43.607,37.529
43.588,38.134
43.533,38.722
43.449,39.284
43.341,39.811
43.216,40.295
43.076,40.733
42.926,41.12
42.77,41.456
42.61,41.741
42.448,41.975
42.284,42.161
42.119,42.3
41.953,42.396
41.786,42.455
41.62,42.481
41.453,42.477
41.287,42.449
41.12,42.397
40.953,42.327
40.787,42.24
40.623,42.14
40.46,42.03
40.3,41.912
40.142,41.786
39.986,41.655
39.832,41.521
39.68,41.385
39.532,41.248
39.386,41.113
39.244,40.98
39.106,40.85
38.971,40.723
38.839,40.599
38.709,40.478
38.58,40.359
38.451,40.241
38.323,40.123
38.193,40.006
38.061,39.889
37.928,39.772
37.795,39.654
37.662,39.532
37.532,39.405
37.405,39.271
37.281,39.13
37.163,38.981
37.051,38.823
36.947,38.659
36.852,38.488
36.766,38.313
36.688,38.135
36.62,37.956
36.561,37.778
36.51,37.601
36.468,37.428
36.433,37.262
36.405,37.105
36.384,36.957
36.37,36.82
36.362,36.695
36.361,36.581
36.364,36.48
36.372,36.39
36.382,36.312
36.393,36.244
36.405,36.185
36.415,36.135
36.423,36.092
36.429,36.056
36.432,36.028
36.43,36.006
36.424,35.991
36.412,35.982
36.395,35.978
36.371,35.978
36.341,35.982
36.304,35.989
36.259,35.999
36.206,36.012
36.146,36.027
36.077,36.043
36.001,36.058
35.917,36.073
35.825,36.085
35.728,36.093
35.627,36.098
35.523,36.098
35.416,36.091
35.307,36.077
35.195,36.055
35.083,36.025
34.97,35.987
34.857,35.941
34.745,35.891
34.634,35.835
34.523,35.777
34.414,35.717
34.305,35.656
34.198,35.593
34.091,35.53
33.984,35.466
33.878,35.399
33.774,35.33
33.672,35.257
33.571,35.182
33.471,35.103
33.374,35.023
33.278,34.943
33.185,34.863
33.095,34.785
33.008,34.708
32.924,34.632
32.844,34.556
32.768,34.48
32.694,34.403
32.623,34.325
32.553,34.247
32.485,34.167
32.417,34.086
32.351,34.007
32.286,33.93
32.222,33.856
32.16,33.786
32.1,33.72
32.041,33.66
31.985,33.603
31.931,33.549
31.879,33.497
31.828,33.444
31.779,33.391
31.733,33.336
31.691,33.28
31.654,33.223
31.622,33.165
31.595,33.105
31.574,33.043
31.556,32.981
31.542,32.917
31.529,32.853
31.515,32.789
31.502,32.724
31.487,32.66
31.471,32.597
31.452,32.537
31.431,32.479
31.409,32.423
31.387,32.367
31.365,32.312
31.345,32.259
31.327,32.206
31.312,32.154
31.3,32.101
31.291,32.046
31.283,31.99
31.277,31.934
31.271,31.881
31.267,31.834
31.265,31.794
31.263,31.764
31.262,31.748
31.262,31.749
31.26,31.771
31.257,31.82
31.252,31.899
31.246,32.014
31.238,32.171
31.23,32.374
31.222,32.628
31.215,32.937
31.208,33.3
31.201,33.716
31.194,34.183
31.186,34.695
31.178,35.243
31.168,35.818
31.157,36.41
31.144,37.01
31.128,37.607
