Trial 3:3back,Trial 5:3back
38.066,36.39
38.012,36.362
37.961,36.336
37.914,36.313
37.871,36.292
37.833,36.273
37.799,36.258
37.769,36.246
37.741,36.235
37.714,36.225
37.687,36.212
37.659,36.198
37.631,36.179
37.603,36.158
37.577,36.135
37.55,36.11
37.524,36.082
37.499,36.051
37.475,36.02
37.451,35.989
37.427,35.96
37.402,35.933
37.377,35.907
37.349,35.884
37.32,35.862
37.289,35.841
37.256,35.822
37.22,35.804
37.182,35.787
37.14,35.771
37.096,35.753
37.049,35.734
36.999,35.713
36.945,35.69
36.888,35.665
36.829,35.637
36.769,35.606
36.709,35.571
36.649,35.531
36.591,35.488
36.534,35.444
36.481,35.402
36.433,35.362
36.391,35.326
36.354,35.297
36.324,35.275
36.301,35.26
36.283,35.251
36.27,35.247
36.263,35.247
36.26,35.25
36.259,35.254
36.261,35.258
36.264,35.262
36.268,35.265
36.271,35.266
36.274,35.266
36.275,35.266
36.275,35.265
36.275,35.264
36.273,35.263
36.268,35.261
36.262,35.257
36.253,35.253
36.242,35.247
36.229,35.242
36.212,35.236
36.191,35.232
36.166,35.23
36.136,35.23
36.1,35.231
36.061,35.23
36.018,35.228
35.971,35.221
35.922,35.208
35.87,35.189
35.815,35.162
35.76,35.13
35.704,35.091
35.649,35.049
35.593,35.003
35.538,34.955
35.482,34.905
35.427,34.856
35.372,34.808
35.316,34.762
35.259,34.718
35.201,34.675
35.141,34.633
35.08,34.593
35.02,34.555
34.96,34.519
34.901,34.485
34.842,34.453
34.784,34.426
34.727,34.403
34.672,34.384
34.619,34.37
34.567,34.358
34.516,34.349
34.468,34.341
34.422,34.332
34.378,34.323
34.336,34.313
34.296,34.303
34.258,34.292
34.224,34.283
34.192,34.274
34.164,34.268
34.14,34.265
34.12,34.264
34.105,34.264
34.093,34.265
34.085,34.266
34.081,34.265
34.08,34.26
34.082,34.252
34.087,34.24
34.094,34.223
34.102,34.204
34.111,34.181
34.122,34.158
34.134,34.133
34.147,34.109
34.161,34.085
34.175,34.062
34.188,34.038
34.2,34.013
34.208,33.988
34.213,33.963
34.214,33.936
34.21,33.91
34.201,33.884
34.188,33.862
34.17,33.845
34.149,33.834
34.125,33.832
34.098,33.84
34.069,33.858
34.041,33.889
34.013,33.932
33.985,33.987
33.957,34.053
33.929,34.131
33.901,34.221
33.875,34.324
33.85,34.439
33.827,34.567
33.804,34.708
33.783,34.859
33.763,35.018
33.744,35.182
33.728,35.348
33.713,35.511
33.7,35.667
33.688,35.813
33.679,35.945
33.673,36.061
33.674,36.163
33.682,36.25
33.701,36.321
33.732,36.377
33.778,36.419
33.842,36.446
33.928,36.461
34.036,36.464
34.17,36.458
34.33,36.447
34.517,36.436
34.73,36.425
34.964,36.418
35.215,36.412
35.477,36.409
35.745,36.405
36.014,36.401
36.278,36.394
36.532,36.383
36.769,36.365
36.988,36.34
37.185,36.308
37.359,36.27
37.512,36.226
37.642,36.179
37.75,36.131
37.837,36.083
37.904,36.037
37.954,35.995
37.987,35.957
38.007,35.923
38.013,35.893
38.007,35.866
37.991,35.844
37.967,35.825
37.936,35.812
37.9,35.803
37.859,35.797
37.814,35.794
37.769,35.792
37.723,35.789
37.678,35.784
37.635,35.775
37.593,35.762
37.555,35.743
37.52,35.718
37.487,35.686
37.457,35.648
37.427,35.608
37.397,35.565
37.368,35.523
37.34,35.482
37.315,35.444
37.29,35.408
37.267,35.377
37.245,35.351
37.224,35.332
37.205,35.318
37.187,35.31
37.171,35.306
37.156,35.307
37.141,35.312
37.124,35.32
37.105,35.33
37.083,35.342
37.057,35.355
37.029,35.367
36.996,35.378
36.958,35.388
36.917,35.397
36.872,35.403
36.823,35.407
36.771,35.41
36.716,35.412
36.659,35.414
36.6,35.416
36.54,35.419
36.48,35.42
36.419,35.42
36.36,35.418
36.302,35.412
36.246,35.403
36.193,35.391
36.143,35.375
36.097,35.356
36.057,35.335
36.025,35.313
36,35.292
35.981,35.271
35.966,35.252
35.955,35.231
35.946,35.208
35.94,35.184
35.935,35.157
35.93,35.129
35.923,35.1
35.913,35.073
35.9,35.046
35.885,35.022
35.867,34.999
35.849,34.978
35.829,34.958
35.809,34.936
35.789,34.911
35.768,34.884
35.746,34.853
35.722,34.817
35.696,34.778
35.667,34.737
35.634,34.696
35.597,34.655
35.556,34.618
35.512,34.585
35.466,34.558
35.418,34.537
35.371,34.522
35.322,34.511
35.275,34.503
35.227,34.499
35.18,34.498
35.134,34.498
35.088,34.5
35.044,34.503
35,34.508
34.957,34.515
34.912,34.523
34.866,34.534
34.821,34.547
34.776,34.559
34.734,34.571
34.695,34.582
34.657,34.589
34.623,34.592
34.591,34.59
34.561,34.583
34.533,34.572
34.506,34.557
34.48,34.539
34.454,34.519
34.427,34.496
34.399,34.471
34.368,34.441
34.335,34.407
34.299,34.369
34.263,34.327
34.228,34.283
34.195,34.237
34.164,34.19
34.136,34.144
34.11,34.103
34.086,34.071
34.066,34.049
34.049,34.039
34.038,34.043
34.032,34.062
34.031,34.097
34.034,34.147
34.041,34.213
34.053,34.294
34.07,34.389
34.089,34.497
34.111,34.617
34.135,34.746
34.157,34.884
34.176,35.028
34.191,35.173
34.201,35.318
34.205,35.459
34.203,35.595
34.193,35.723
34.175,35.84
34.149,35.945
34.115,36.038
34.076,36.116
34.032,36.18
33.985,36.232
33.938,36.273
33.892,36.305
33.848,36.328
33.805,36.344
33.765,36.353
33.727,36.356
33.69,36.354
33.655,36.346
33.624,36.335
33.594,36.322
33.566,36.308
33.538,36.291
33.509,36.272
33.48,36.252
33.452,36.23
33.424,36.206
33.397,36.18
33.372,36.151
33.347,36.119
33.322,36.085
33.295,36.052
33.269,36.02
33.244,35.991
33.222,35.965
33.206,35.943
33.198,35.926
33.2,35.913
33.215,35.904
33.248,35.899
33.302,35.897
33.381,35.896
33.489,35.894
33.628,35.89
33.798,35.884
33.998,35.876
34.227,35.863
34.481,35.847
34.756,35.827
35.048,35.804
35.35,35.778
35.655,35.75
35.957,35.721
36.249,35.691
36.524,35.661
36.78,35.633
37.013,35.608
37.221,35.587
37.402,35.572
37.555,35.562
37.679,35.556
37.774,35.552
37.843,35.549
37.89,35.545
37.915,35.539
37.922,35.531
37.911,35.519
37.887,35.505
37.852,35.487
37.809,35.467
37.761,35.448
37.711,35.432
37.659,35.42
37.608,35.414
37.558,35.413
37.51,35.417
37.465,35.427
37.423,35.443
37.384,35.465
37.349,35.491
37.316,35.521
37.285,35.551
37.255,35.581
37.225,35.609
37.195,35.634
37.165,35.653
37.135,35.665
37.105,35.668
37.077,35.663
37.051,35.648
37.026,35.624
37.003,35.594
36.981,35.561
36.959,35.525
36.937,35.49
36.915,35.455
36.893,35.424
36.871,35.397
36.849,35.373
36.826,35.352
36.802,35.333
36.775,35.315
36.745,35.296
36.711,35.276
36.672,35.253
36.628,35.229
36.578,35.201
36.523,35.172
36.461,35.141
36.392,35.109
36.318,35.077
36.24,35.045
36.16,35.012
36.08,34.979
36.002,34.945
35.926,34.909
35.855,34.871
35.79,34.832
35.732,34.795
35.681,34.76
35.641,34.73
35.609,34.707
35.586,34.689
35.57,34.676
35.56,34.666
35.555,34.658
35.554,34.65
35.556,34.641
35.56,34.631
35.567,34.62
35.576,34.61
35.586,34.602
35.598,34.595
35.612,34.591
35.627,34.59
35.64,34.59
35.651,34.59
35.657,34.59
35.659,34.589
35.657,34.584
35.65,34.577
35.638,34.567
35.621,34.555
35.598,34.543
35.571,34.53
35.539,34.517
35.503,34.504
35.463,34.492
35.42,34.481
35.373,34.471
35.323,34.46
35.27,34.448
35.213,34.433
35.152,34.418
35.085,34.402
35.012,34.386
34.936,34.372
34.856,34.359
34.776,34.348
34.696,34.339
34.616,34.333
34.537,34.333
34.461,34.341
34.39,34.358
34.325,34.386
34.267,34.427
34.217,34.482
34.173,34.552
34.137,34.64
34.106,34.744
34.081,34.863
34.061,34.996
34.045,35.138
34.031,35.288
34.02,35.441
34.011,35.594
34.004,35.743
33.999,35.885
33.996,36.017
33.992,36.137
33.987,36.245
33.981,36.339
33.975,36.42
33.967,36.488
33.957,36.544
33.943,36.588
33.927,36.621
33.908,36.643
33.887,36.655
33.866,36.659
33.845,36.655
33.823,36.645
33.801,36.629
33.779,36.609
33.758,36.585
33.738,36.56
33.72,36.532
33.703,36.502
33.687,36.47
33.671,36.435
33.656,36.396
33.643,36.353
33.63,36.308
33.619,36.261
33.609,36.214
33.6,36.167
33.591,36.121
33.581,36.079
33.57,36.042
33.557,36.01
33.542,35.983
33.524,35.962
33.503,35.946
33.48,35.933
33.454,35.924
33.426,35.918
33.398,35.916
33.371,35.916
33.346,35.917
33.325,35.918
33.311,35.917
33.308,35.915
33.319,35.909
33.346,35.9
33.392,35.886
33.461,35.867
33.554,35.844
33.674,35.817
33.821,35.787
33.995,35.755
34.193,35.723
34.415,35.688
34.657,35.652
34.915,35.615
35.184,35.576
35.46,35.536
35.736,35.494
36.007,35.45
36.27,35.405
36.519,35.36
36.75,35.318
36.96,35.281
37.146,35.252
37.306,35.231
37.439,35.219
37.545,35.214
37.628,35.217
37.694,35.226
37.744,35.239
37.781,35.257
37.806,35.277
37.818,35.298
37.818,35.32
37.807,35.341
37.783,35.361
37.749,35.378
37.703,35.393
37.647,35.404
37.583,35.41
37.511,35.411
37.432,35.407
37.348,35.399
37.261,35.388
37.174,35.375
37.09,35.362
37.009,35.35
36.933,35.338
36.863,35.329
36.802,35.322
36.747,35.316
36.7,35.309
36.659,35.302
36.622,35.292
36.589,35.281
36.56,35.266
36.533,35.247
36.506,35.225
36.477,35.2
36.447,35.172
36.416,35.142
36.384,35.111
36.35,35.081
36.315,35.051
36.277,35.024
36.236,35.004
36.192,34.992
36.147,34.987
36.099,34.988
36.048,34.993
35.994,35
35.935,35.008
35.873,35.015
35.809,35.02
35.743,35.022
35.675,35.019
35.609,35.009
35.545,34.991
35.486,34.964
35.431,34.931
35.383,34.892
35.342,34.85
35.308,34.806
35.282,34.762
35.262,34.72
35.25,34.682
35.245,34.65
35.246,34.623
35.252,34.604
35.262,34.589
35.275,34.578
35.292,34.568
35.312,34.56
35.333,34.552
35.355,34.543
35.377,34.534
35.398,34.524
35.417,34.513
35.432,34.499
35.444,34.483
35.45,34.466
35.452,34.449
35.447,34.431
35.436,34.411
35.419,34.389
35.395,34.366
35.365,34.342
35.327,34.318
35.282,34.296
35.232,34.275
35.177,34.257
35.119,34.242
35.059,34.229
34.997,34.219
34.933,34.209
34.87,34.2
34.807,34.191
34.744,34.184
34.681,34.18
34.618,34.182
34.556,34.194
34.495,34.217
34.437,34.254
34.381,34.309
34.327,34.383
34.274,34.478
34.224,34.592
34.176,34.725
34.13,34.873
34.087,35.033
34.045,35.202
34.004,35.376
33.963,35.552
33.921,35.727
33.879,35.899
33.837,36.064
33.794,36.218
33.749,36.36
33.704,36.488
33.659,36.601
33.615,36.696
33.571,36.775
33.527,36.838
33.486,36.884
33.447,36.917
33.413,36.937
33.382,36.946
33.356,36.946
33.334,36.938
33.317,36.921
33.304,36.896
33.298,36.865
33.297,36.829
33.302,36.789
33.312,36.747
33.326,36.705
33.343,36.662
33.361,36.619
33.379,36.575
33.395,36.532
33.41,36.49
33.421,36.447
33.43,36.405
33.434,36.364
33.436,36.323
33.434,36.283
33.428,36.246
33.419,36.216
33.408,36.192
33.396,36.175
33.381,36.163
33.363,36.156
33.342,36.154
33.315,36.156
33.284,36.162
33.249,36.17
33.208,36.178
33.159,36.187
33.1,36.194
33.036,36.198
32.969,36.2
32.904,36.198
32.843,36.191
32.79,36.177
32.746,36.157
32.715,36.13
32.699,36.098
32.701,36.063
32.72,36.027
32.76,35.992
32.821,35.958
32.908,35.928
33.021,35.9
33.165,35.875
33.339,35.853
33.544,35.834
33.78,35.816
34.045,35.8
34.335,35.783
34.644,35.766
34.968,35.751
35.297,35.736
35.626,35.723
35.948,35.712
36.255,35.702
36.544,35.691
36.812,35.681
37.054,35.671
37.269,35.661
37.456,35.651
37.614,35.643
37.744,35.636
37.845,35.631
37.921,35.63
37.973,35.631
38.004,35.635
38.016,35.641
38.011,35.645
37.991,35.648
37.958,35.648
37.915,35.646
37.865,35.641
37.811,35.632
37.753,35.62
37.694,35.603
37.634,35.582
37.575,35.556
37.519,35.526
37.465,35.493
37.413,35.456
37.364,35.415
37.316,35.371
37.271,35.327
37.228,35.283
37.188,35.239
37.152,35.198
37.118,35.16
37.087,35.126
37.059,35.095
37.034,35.066
37.011,35.04
36.991,35.017
36.973,34.994
36.957,34.971
36.943,34.948
36.929,34.924
36.914,34.899
36.897,34.874
36.878,34.849
36.856,34.825
36.829,34.799
36.797,34.771
36.759,34.741
36.715,34.708
36.667,34.676
36.614,34.644
36.557,34.612
36.495,34.583
36.43,34.556
36.362,34.533
36.291,34.515
36.22,34.502
36.148,34.494
36.075,34.491
36.002,34.491
35.927,34.493
35.853,34.496
35.78,34.499
35.71,34.5
35.645,34.497
35.586,34.49
35.534,34.48
35.489,34.469
35.45,34.456
35.419,34.442
35.394,34.427
35.376,34.41
35.365,34.392
35.359,34.373
35.357,34.353
35.358,34.334
35.362,34.315
35.367,34.297
35.375,34.279
35.385,34.262
35.397,34.247
35.41,34.233
35.422,34.22
35.433,34.207
35.441,34.194
35.446,34.179
35.449,34.165
35.447,34.153
35.44,34.145
35.426,34.145
35.404,34.156
35.375,34.181
35.338,34.224
35.295,34.288
35.246,34.375
35.191,34.485
35.131,34.616
35.068,34.766
35.003,34.93
34.937,35.105
34.872,35.288
34.805,35.474
34.738,35.659
34.669,35.84
34.598,36.012
34.526,36.172
34.451,36.318
34.374,36.447
34.295,36.558
34.215,36.65
34.136,36.724
34.06,36.78
33.986,36.819
33.915,36.844
33.849,36.857
33.788,36.862
33.737,36.858
33.699,36.85
33.671,36.837
33.653,36.819
33.642,36.796
33.637,36.769
33.635,36.739
33.635,36.704
33.634,36.666
33.631,36.626
33.626,36.583
33.617,36.539
33.606,36.494
33.593,36.451
33.578,36.409
33.563,36.369
33.548,36.332
33.532,36.299
33.518,36.267
33.504,36.238
33.494,36.209
33.485,36.181
33.48,36.154
33.475,36.127
33.472,36.101
33.468,36.075
33.464,36.05
33.458,36.024
33.452,35.998
33.444,35.971
33.436,35.942
33.426,35.911
33.415,35.877
33.402,35.84
33.388,35.801
33.371,35.759
33.351,35.715
33.33,35.669
33.306,35.622
33.283,35.574
33.26,35.525
33.238,35.476
33.216,35.428
33.193,35.38
33.169,35.335
33.145,35.294
33.122,35.258
33.1,35.229
33.078,35.208
33.056,35.196
33.034,35.189
33.015,35.188
33.001,35.191
32.994,35.194
32.999,35.197
33.02,35.198
33.059,35.196
33.121,35.192
33.213,35.186
33.337,35.179
33.496,35.173
33.689,35.167
33.917,35.163
34.177,35.16
34.466,35.16
34.778,35.161
35.107,35.164
35.445,35.169
35.785,35.175
36.12,35.18
36.445,35.185
36.753,35.189
37.039,35.191
37.299,35.19
37.529,35.185
37.727,35.173
37.893,35.155
38.027,35.129
38.129,35.096
38.201,35.058
38.247,35.016
38.27,34.969
38.273,34.921
38.259,34.872
38.23,34.824
38.192,34.78
38.146,34.741
38.096,34.706
38.044,34.675
37.99,34.645
37.936,34.615
37.883,34.584
37.83,34.549
37.778,34.512
37.727,34.471
37.678,34.427
37.63,34.379
37.583,34.331
37.538,34.283
37.495,34.237
37.454,34.194
37.416,34.155
37.382,34.121
37.35,34.092
37.323,34.068
37.299,34.049
37.278,34.035
37.259,34.024
37.241,34.015
37.223,34.004
37.206,33.99
37.188,33.97
37.167,33.946
37.142,33.919
37.112,33.891
37.077,33.864
37.037,33.839
36.992,33.818
36.942,33.802
36.887,33.789
36.827,33.781
36.764,33.777
36.697,33.776
36.626,33.779
36.551,33.784
36.472,33.791
36.39,33.8
36.305,33.809
36.219,33.816
36.133,33.819
36.047,33.817
35.964,33.809
35.885,33.793
35.812,33.771
35.747,33.744
35.69,33.715
35.642,33.687
35.602,33.661
35.57,33.641
35.545,33.633
35.527,33.639
35.515,33.661
35.507,33.704
35.503,33.768
35.502,33.852
35.505,33.956
35.511,34.08
35.519,34.222
35.528,34.381
35.539,34.555
35.551,34.742
35.564,34.938
35.578,35.14
35.592,35.344
35.606,35.546
35.619,35.742
35.629,35.927
35.635,36.096
35.637,36.248
35.633,36.378
35.623,36.488
35.608,36.577
35.587,36.648
35.559,36.7
35.525,36.737
35.485,36.76
35.439,36.769
35.385,36.766
35.323,36.753
35.253,36.731
35.175,36.702
35.089,36.668
34.998,36.63
34.903,36.591
34.806,36.552
34.71,36.514
34.615,36.478
34.525,36.443
34.438,36.408
34.356,36.371
34.277,36.333
34.203,36.294
34.135,36.254
34.07,36.213
34.01,36.172
33.953,36.131
33.899,36.093
33.85,36.056
33.805,36.021
33.764,35.989
33.728,35.959
33.695,35.93
33.666,35.901
33.642,35.873
33.624,35.845
33.611,35.82
33.602,35.798
33.596,35.78
33.591,35.765
33.587,35.753
33.584,35.742
33.58,35.731
33.575,35.718
33.569,35.7
33.562,35.675
33.554,35.643
33.546,35.602
33.539,35.554
33.532,35.501
33.525,35.445
33.517,35.389
33.508,35.334
33.5,35.282
33.492,35.235
33.484,35.193
33.475,35.155
33.465,35.124
33.453,35.097
33.441,35.074
33.429,35.056
33.416,35.043
33.401,35.033
33.383,35.026
33.363,35.022
33.342,35.021
33.32,35.02
33.297,35.02
33.274,35.019
33.249,35.019
33.222,35.018
33.193,35.016
33.164,35.014
33.135,35.012
33.108,35.013
33.083,35.015
33.06,35.02
33.04,35.027
33.023,35.035
33.01,35.043
33.003,35.051
33.001,35.056
33.007,35.059
33.024,35.057
33.056,35.048
33.107,35.031
33.182,35.006
33.283,34.973
33.416,34.934
33.581,34.891
33.781,34.845
34.015,34.797
34.281,34.746
34.576,34.695
34.894,34.644
35.228,34.594
35.572,34.547
35.918,34.503
36.26,34.461
36.589,34.422
36.899,34.384
37.182,34.348
37.436,34.313
37.659,34.278
37.848,34.241
38.005,34.203
38.13,34.162
38.225,34.119
38.292,34.073
38.333,34.027
38.353,33.981
38.353,33.937
38.337,33.895
38.308,33.858
38.269,33.827
38.223,33.802
38.171,33.782
38.116,33.767
38.059,33.756
38,33.748
37.941,33.743
37.883,33.74
37.826,33.737
37.772,33.734
37.722,33.729
37.674,33.722
37.631,33.714
37.591,33.705
37.553,33.695
37.516,33.684
37.482,33.671
37.449,33.656
37.417,33.64
37.386,33.623
37.355,33.603
37.325,33.58
37.296,33.555
37.268,33.527
37.242,33.496
37.218,33.463
37.194,33.43
37.171,33.396
37.148,33.365
37.126,33.338
37.103,33.319
37.077,33.311
37.047,33.316
37.012,33.337
36.97,33.377
36.922,33.439
36.866,33.525
36.802,33.636
36.733,33.772
36.657,33.932
36.578,34.116
36.496,34.318
36.414,34.537
36.329,34.766
36.243,35.002
36.155,35.238
36.068,35.469
35.984,35.691
35.905,35.899
35.832,36.09
35.767,36.262
35.712,36.415
35.669,36.548
35.638,36.662
35.618,36.756
35.61,36.831
35.611,36.889
35.621,36.931
35.639,36.958
35.664,36.97
35.692,36.969
35.721,36.957
35.749,36.937
35.771,36.91
35.788,36.88
35.799,36.848
35.805,36.816
35.805,36.784
35.798,36.751
35.784,36.716
35.765,36.681
35.74,36.644
35.711,36.607
35.677,36.571
35.639,36.536
35.599,36.5
35.557,36.464
35.512,36.427
35.463,36.389
35.411,36.351
35.357,36.314
35.301,36.278
35.244,36.243
35.186,36.212
35.126,36.184
35.065,36.161
35.002,36.143
34.939,36.13
34.875,36.118
34.81,36.107
34.743,36.093
34.674,36.077
34.602,36.056
34.53,36.031
34.457,36.002
34.386,35.968
34.316,35.93
34.249,35.889
34.184,35.846
34.124,35.802
34.069,35.758
34.02,35.714
33.976,35.669
33.937,35.624
33.902,35.579
33.871,35.536
33.843,35.494
33.816,35.453
33.79,35.412
33.763,35.373
33.736,35.336
33.708,35.302
33.681,35.271
33.654,35.244
33.628,35.222
33.602,35.206
33.576,35.197
33.549,35.194
33.524,35.198
33.501,35.208
33.479,35.222
33.459,35.241
33.44,35.262
33.42,35.285
33.4,35.307
33.383,35.328
33.369,35.347
33.359,35.361
33.352,35.369
33.348,35.372
33.346,35.368
33.346,35.359
33.35,35.347
33.356,35.33
33.365,35.311
33.374,35.288
33.383,35.264
33.391,35.237
33.396,35.21
33.398,35.182
33.393,35.152
33.383,35.124
33.366,35.096
33.342,35.069
33.314,35.042
33.279,35.014
33.239,34.986
33.194,34.954
33.146,34.918
33.096,34.876
33.046,34.828
32.998,34.776
32.953,34.72
32.91,34.661
32.87,34.601
32.836,34.542
32.81,34.485
32.795,34.431
32.793,34.381
32.807,34.335
32.839,34.291
32.894,34.247
32.976,34.203
33.089,34.159
33.236,34.113
33.421,34.067
33.643,34.02
33.901,33.975
34.194,33.931
34.515,33.892
34.86,33.858
35.222,33.833
35.593,33.815
35.966,33.805
36.332,33.801
36.685,33.8
37.018,33.801
37.327,33.803
37.608,33.803
37.858,33.798
38.077,33.79
38.262,33.776
38.413,33.757
38.531,33.734
38.617,33.707
38.674,33.678
38.706,33.647
38.717,33.614
38.71,33.582
38.689,33.551
38.658,33.522
38.619,33.496
38.574,33.473
38.526,33.454
38.474,33.438
38.419,33.427
38.361,33.425
38.301,33.435
38.238,33.46
38.173,33.503
38.105,33.568
38.034,33.657
37.962,33.771
37.889,33.911
37.817,34.074
37.747,34.26
37.68,34.466
37.617,34.688
37.557,34.924
37.503,35.171
37.454,35.423
37.41,35.676
37.372,35.924
37.337,36.16
37.304,36.381
37.27,36.583
37.234,36.764
37.196,36.921
37.156,37.054
37.113,37.163
37.066,37.247
37.016,37.308
36.962,37.349
36.904,37.369
36.844,37.37
36.78,37.355
36.713,37.326
36.643,37.283
36.569,37.231
36.492,37.171
36.412,37.11
36.329,37.049
36.245,36.992
36.16,36.939
36.077,36.89
36,36.846
35.928,36.805
35.865,36.767
35.809,36.732
35.762,36.7
35.724,36.669
35.697,36.639
35.68,36.61
35.672,36.583
35.672,36.555
35.679,36.527
35.691,36.499
35.707,36.469
35.725,36.436
35.744,36.4
35.763,36.361
35.779,36.321
35.794,36.281
35.808,36.241
35.819,36.202
35.828,36.166
35.836,36.132
35.84,36.102
35.842,36.075
35.839,36.049
35.832,36.023
35.819,35.993
35.801,35.96
35.776,35.923
35.744,35.883
35.704,35.841
35.658,35.796
35.605,35.749
35.546,35.7
35.481,35.649
35.412,35.595
35.341,35.541
35.267,35.488
35.19,35.437
35.109,35.389
35.024,35.346
34.937,35.311
34.847,35.285
34.756,35.269
34.663,35.262
34.57,35.261
34.477,35.265
34.387,35.273
34.302,35.282
34.221,35.292
34.147,35.301
34.077,35.31
34.013,35.317
33.954,35.322
33.901,35.325
33.854,35.328
33.812,35.33
33.775,35.331
33.743,35.331
33.714,35.33
33.69,35.329
33.67,35.326
33.652,35.323
33.636,35.319
33.622,35.315
33.609,35.31
33.597,35.306
33.587,35.302
33.578,35.298
33.569,35.292
33.56,35.282
33.551,35.267
33.542,35.243
33.533,35.21
33.524,35.165
33.516,35.11
33.506,35.045
33.497,34.971
33.488,34.89
33.48,34.805
33.471,34.72
33.462,34.637
33.451,34.559
33.438,34.488
33.423,34.426
33.408,34.371
33.392,34.324
33.377,34.282
33.361,34.245
33.345,34.212
33.328,34.181
33.311,34.149
33.293,34.118
33.273,34.087
33.252,34.056
33.229,34.024
33.205,33.993
33.18,33.962
33.154,33.931
33.128,33.901
33.102,33.872
33.076,33.844
33.053,33.817
33.035,33.79
33.025,33.764
33.03,33.739
33.054,33.717
33.101,33.697
33.178,33.68
33.287,33.665
33.435,33.65
33.622,33.636
33.851,33.623
34.117,33.612
34.415,33.601
34.739,33.591
35.081,33.582
35.434,33.572
35.788,33.563
36.136,33.556
36.471,33.549
36.785,33.543
37.075,33.537
37.338,33.531
37.57,33.523
37.771,33.515
37.942,33.508
38.085,33.505
38.199,33.507
38.285,33.52
38.343,33.547
38.372,33.594
38.376,33.665
38.356,33.763
38.314,33.891
38.255,34.048
38.182,34.233
38.1,34.443
38.014,34.674
37.928,34.921
37.844,35.178
37.763,35.441
37.687,35.704
37.616,35.961
37.551,36.206
37.49,36.435
37.435,36.642
37.384,36.826
37.336,36.987
37.292,37.125
37.251,37.24
37.211,37.334
37.174,37.409
37.138,37.467
37.104,37.508
37.073,37.533
37.045,37.546
37.02,37.547
36.995,37.536
36.971,37.517
36.945,37.488
36.917,37.452
36.886,37.41
36.851,37.361
36.811,37.308
36.763,37.252
36.71,37.194
36.651,37.137
36.585,37.08
36.515,37.024
36.441,36.968
36.362,36.913
36.279,36.858
36.193,36.805
36.105,36.755
36.017,36.708
35.929,36.665
35.842,36.626
35.757,36.59
35.674,36.559
35.597,36.53
35.525,36.502
35.46,36.473
35.402,36.442
35.353,36.41
35.311,36.375
35.278,36.339
35.253,36.301
35.237,36.263
35.229,36.223
35.228,36.182
35.235,36.14
35.246,36.095
35.26,36.047
35.274,35.995
35.288,35.941
35.301,35.884
35.314,35.827
35.327,35.77
35.338,35.716
35.349,35.667
35.358,35.624
35.365,35.589
35.371,35.559
35.375,35.534
35.374,35.515
35.368,35.499
35.355,35.484
35.336,35.471
35.31,35.458
35.276,35.447
35.235,35.438
35.186,35.431
35.13,35.427
35.068,35.426
35.002,35.429
34.93,35.434
34.852,35.44
34.771,35.446
34.687,35.453
34.6,35.461
34.513,35.469
34.424,35.478
34.332,35.487
34.238,35.496
34.141,35.503
34.043,35.507
33.945,35.506
33.848,35.5
33.753,35.487
33.66,35.466
33.57,35.438
33.484,35.401
33.405,35.355
33.333,35.299
33.269,35.235
33.213,35.167
33.163,35.099
33.119,35.032
33.082,34.968
33.053,34.91
33.03,34.859
33.015,34.813
33.007,34.771
33.004,34.732
33.007,34.696
33.016,34.661
33.029,34.626
33.047,34.591
33.067,34.555
33.089,34.517
33.11,34.476
33.13,34.433
33.147,34.389
33.162,34.342
33.172,34.294
33.177,34.245
33.178,34.197
33.176,34.152
33.169,34.11
33.16,34.074
33.145,34.044
33.126,34.02
33.103,34.001
33.075,33.986
33.045,33.974
33.012,33.964
32.977,33.952
32.939,33.938
32.898,33.92
32.854,33.898
32.811,33.873
32.769,33.846
32.73,33.819
32.694,33.793
32.663,33.768
32.638,33.745
32.619,33.726
32.608,33.708
32.608,33.692
32.62,33.677
32.648,33.662
32.694,33.647
32.764,33.631
32.861,33.614
32.991,33.597
33.158,33.578
33.364,33.559
33.61,33.539
33.895,33.52
34.216,33.501
34.568,33.485
34.942,33.471
35.331,33.461
35.724,33.456
36.115,33.461
36.495,33.479
36.856,33.515
37.193,33.574
37.5,33.66
37.774,33.775
38.012,33.919
38.213,34.093
38.376,34.293
38.504,34.517
38.599,34.76
38.665,35.018
38.705,35.283
38.723,35.55
38.722,35.814
38.705,36.071
38.674,36.316
38.634,36.545
38.585,36.755
38.53,36.943
38.47,37.106
38.407,37.244
38.341,37.358
38.275,37.449
38.208,37.52
38.143,37.573
38.08,37.608
38.021,37.628
37.966,37.635
37.914,37.629
37.863,37.614
37.813,37.59
37.765,37.558
37.719,37.521
37.673,37.479
37.626,37.432
37.578,37.382
37.528,37.329
37.476,37.273
37.425,37.215
37.376,37.156
37.328,37.095
37.282,37.033
37.238,36.971
37.195,36.911
37.153,36.853
37.113,36.798
37.074,36.747
37.035,36.7
36.994,36.657
36.951,36.618
36.903,36.583
36.851,36.551
36.793,36.522
36.731,36.493
36.664,36.465
36.592,36.438
36.517,36.409
36.44,36.38
36.361,36.349
36.283,36.315
36.208,36.279
36.138,36.237
36.073,36.191
36.014,36.139
35.962,36.082
35.917,36.021
35.879,35.958
35.85,35.893
35.829,35.828
35.817,35.767
35.811,35.709
35.813,35.657
35.821,35.613
35.835,35.575
35.855,35.543
35.877,35.517
35.899,35.497
35.92,35.483
35.938,35.472
35.954,35.465
35.966,35.46
35.974,35.458
35.976,35.456
35.973,35.455
35.964,35.455
35.949,35.456
35.929,35.46
35.904,35.466
35.874,35.473
35.84,35.484
35.802,35.497
35.759,35.513
35.71,35.532
35.656,35.555
35.597,35.578
35.532,35.6
35.461,35.617
35.384,35.629
35.299,35.633
35.207,35.63
35.11,35.616
35.01,35.594
34.907,35.563
34.806,35.524
34.705,35.478
34.607,35.426
34.511,35.369
34.416,35.307
34.324,35.242
34.235,35.173
34.148,35.103
34.065,35.034
33.986,34.966
33.912,34.901
33.841,34.839
33.776,34.782
33.717,34.728
33.665,34.677
33.62,34.628
33.582,34.58
33.552,34.532
33.529,34.48
33.511,34.426
33.497,34.37
33.487,34.311
33.479,34.249
33.474,34.186
33.469,34.123
33.466,34.06
33.464,34
33.46,33.945
33.456,33.895
33.451,33.851
33.446,33.812
33.441,33.778
33.436,33.75
33.427,33.726
33.416,33.706
33.401,33.689
33.383,33.676
33.363,33.665
33.34,33.655
33.315,33.647
33.287,33.638
33.256,33.631
33.222,33.623
33.188,33.613
33.156,33.601
33.128,33.588
33.104,33.573
33.086,33.556
33.072,33.539
33.061,33.523
33.053,33.509
33.045,33.496
33.038,33.485
33.031,33.475
33.024,33.465
33.019,33.452
33.018,33.437
33.022,33.419
33.035,33.4
33.06,33.379
33.103,33.359
33.17,33.34
33.266,33.323
33.394,33.31
33.559,33.303
33.759,33.308
33.996,33.326
34.268,33.363
34.571,33.421
34.898,33.502
35.243,33.609
35.6,33.744
35.96,33.907
36.317,34.099
36.663,34.318
36.993,34.563
37.3,34.828
37.579,35.107
37.828,35.396
38.045,35.687
38.227,35.975
38.377,36.254
38.495,36.516
38.583,36.759
38.643,36.979
38.677,37.174
38.69,37.344
38.685,37.489
38.665,37.609
38.635,37.707
38.597,37.782
38.552,37.835
38.503,37.869
38.452,37.886
38.4,37.889
38.347,37.88
38.295,37.862
38.243,37.835
38.19,37.8
38.137,37.758
38.084,37.711
38.032,37.658
37.981,37.601
37.93,37.539
37.88,37.474
37.831,37.406
37.784,37.338
37.74,37.272
37.699,37.21
37.661,37.151
37.625,37.096
37.591,37.045
37.56,36.998
37.53,36.959
37.5,36.929
37.469,36.905
37.437,36.887
37.403,36.87
37.367,36.851
37.329,36.827
37.289,36.798
37.245,36.762
37.197,36.719
37.146,36.67
37.09,36.614
37.028,36.553
36.962,36.486
36.89,36.413
36.812,36.337
36.728,36.26
36.64,36.181
36.547,36.103
36.452,36.026
36.358,35.953
36.266,35.885
36.178,35.821
36.095,35.765
36.02,35.716
35.954,35.675
35.899,35.644
35.857,35.621
35.826,35.606
35.807,35.599
35.797,35.596
35.796,35.596
35.802,35.597
35.814,35.596
35.831,35.593
35.851,35.586
35.874,35.577
35.898,35.568
35.924,35.559
35.949,35.552
35.973,35.548
35.995,35.548
36.014,35.553
36.029,35.561
36.041,35.573
36.047,35.585
36.047,35.597
36.039,35.608
36.024,35.617
36,35.623
35.97,35.627
35.933,35.629
35.889,35.627
35.84,35.621
35.785,35.609
35.726,35.59
35.663,35.564
35.595,35.532
35.522,35.491
35.444,35.444
35.363,35.391
35.278,35.332
35.189,35.269
35.097,35.205
35.002,35.14
34.904,35.075
34.806,35.011
34.707,34.947
34.609,34.883
34.512,34.82
34.418,34.757
34.326,34.697
34.237,34.637
34.152,34.579
34.073,34.521
34,34.465
33.932,34.409
33.871,34.356
33.817,34.303
33.77,34.251
33.731,34.202
33.7,34.153
33.676,34.106
33.658,34.06
33.648,34.017
33.644,33.975
33.646,33.935
33.654,33.897
33.665,33.863
33.678,33.83
33.69,33.797
33.701,33.765
33.709,33.733
33.715,33.7
33.717,33.667
33.714,33.635
33.706,33.603
33.693,33.573
33.677,33.544
33.657,33.518
33.633,33.495
33.606,33.477
33.575,33.464
33.539,33.455
33.499,33.449
33.454,33.445
33.407,33.441
33.357,33.438
33.307,33.436
33.257,33.433
33.211,33.429
33.169,33.425
33.134,33.418
33.107,33.409
33.092,33.397
33.088,33.383
33.096,33.368
33.119,33.352
33.159,33.335
33.222,33.32
33.309,33.308
33.426,33.304
33.573,33.309
33.756,33.328
33.973,33.367
34.226,33.432
34.509,33.526
34.819,33.653
35.151,33.814
35.499,34.009
35.856,34.236
36.214,34.49
36.567,34.766
36.908,35.059
37.229,35.361
37.525,35.668
37.794,35.972
38.03,36.268
38.232,36.551
38.401,36.817
38.537,37.062
38.641,37.284
38.714,37.477
38.761,37.642
38.785,37.778
38.789,37.884
38.776,37.964
38.75,38.018
38.715,38.051
38.672,38.066
38.624,38.064
38.573,38.047
38.518,38.017
38.461,37.975
38.401,37.925
38.341,37.868
38.28,37.808
38.22,37.745
38.16,37.683
38.102,37.62
38.045,37.558
37.992,37.497
37.942,37.437
37.894,37.376
37.847,37.316
37.801,37.255
37.756,37.196
37.711,37.137
37.668,37.081
37.624,37.028
37.58,36.98
37.535,36.937
37.49,36.898
37.444,36.862
37.398,36.827
37.352,36.794
37.307,36.761
37.261,36.728
37.215,36.696
37.167,36.663
37.116,36.63
37.062,36.594
37.005,36.555
36.943,36.514
36.876,36.469
36.803,36.42
36.725,36.365
36.643,36.306
36.557,36.243
36.471,36.178
36.386,36.111
36.304,36.046
36.224,35.983
36.149,35.925
36.08,35.87
36.019,35.818
35.966,35.769
35.921,35.724
35.885,35.686
35.855,35.653
35.831,35.628
35.812,35.61
35.799,35.599
35.79,35.596
35.784,35.6
35.78,35.609
35.778,35.621
35.778,35.634
35.781,35.645
35.785,35.654
35.791,35.66
35.799,35.663
35.807,35.663
35.815,35.661
35.821,35.657
35.822,35.652
35.819,35.647
35.81,35.642
35.792,35.639
35.767,35.637
35.734,35.633
35.692,35.626
35.643,35.616
35.59,35.603
35.534,35.585
35.474,35.563
35.41,35.537
35.344,35.505
35.274,35.467
35.202,35.424
35.129,35.374
35.054,35.317
34.979,35.253
34.901,35.182
34.823,35.104
34.744,35.022
34.668,34.938
34.594,34.855
34.523,34.776
34.456,34.702
34.392,34.633
34.331,34.57
34.273,34.512
34.217,34.459
34.161,34.41
34.105,34.363
34.05,34.317
33.995,34.271
33.942,34.226
33.89,34.179
33.839,34.132
33.79,34.085
33.742,34.038
33.697,33.99
33.655,33.944
33.616,33.9
33.582,33.859
33.55,33.821
33.521,33.786
33.492,33.755
33.466,33.727
33.44,33.703
33.415,33.684
33.388,33.67
33.36,33.661
33.33,33.654
33.299,33.648
33.265,33.643
33.23,33.636
33.194,33.626
33.159,33.611
33.127,33.592
33.1,33.568
33.082,33.54
33.074,33.509
33.078,33.476
33.097,33.442
33.133,33.41
33.191,33.381
33.274,33.354
33.384,33.331
33.525,33.312
33.697,33.295
33.902,33.28
34.14,33.266
34.407,33.251
34.7,33.234
35.013,33.216
35.34,33.2
35.674,33.19
36.009,33.189
36.339,33.203
36.657,33.236
36.957,33.294
37.236,33.382
37.49,33.502
37.718,33.654
37.918,33.839
38.089,34.054
38.232,34.297
38.349,34.566
38.44,34.854
38.507,35.156
38.552,35.465
38.576,35.774
38.583,36.077
38.573,36.366
38.548,36.638
38.511,36.887
38.463,37.112
38.407,37.31
38.345,37.479
38.278,37.621
38.208,37.736
38.138,37.825
38.067,37.892
38,37.936
37.936,37.96
37.876,37.965
37.82,37.954
37.768,37.931
37.718,37.899
37.67,37.862
37.624,37.822
37.579,37.78
37.536,37.736
37.495,37.689
37.454,37.642
37.416,37.592
37.379,37.542
37.344,37.491
37.311,37.44
37.278,37.388
37.244,37.333
37.208,37.278
37.167,37.22
37.121,37.162
37.069,37.103
37.011,37.043
36.946,36.983
36.873,36.924
36.793,36.865
36.704,36.808
36.609,36.754
36.51,36.704
36.411,36.659
36.312,36.619
36.214,36.582
36.119,36.547
36.029,36.513
35.945,36.478
35.871,36.443
35.805,36.408
35.748,36.369
35.698,36.327
35.656,36.281
35.623,36.23
35.598,36.173
35.582,36.112
35.573,36.046
35.571,35.976
35.574,35.904
35.583,35.831
35.596,35.758
35.611,35.69
35.63,35.629
35.65,35.576
35.671,35.531
35.692,35.495
35.709,35.468
35.723,35.45
35.732,35.439
35.738,35.436
35.74,35.441
35.737,35.452
35.73,35.469
35.717,35.488
35.698,35.508
35.674,35.53
35.646,35.551
35.614,35.572
35.577,35.59
35.533,35.606
35.485,35.618
35.43,35.627
35.372,35.633
35.311,35.635
35.249,35.634
35.184,35.629
35.119,35.621
35.052,35.608
34.985,35.59
34.917,35.567
34.852,35.54
34.788,35.507
34.726,35.468
34.666,35.423
34.606,35.373
34.547,35.319
34.487,35.262
34.425,35.202
34.362,35.139
34.297,35.074
34.231,35.006
34.164,34.936
34.097,34.864
34.03,34.79
33.964,34.715
33.899,34.638
33.838,34.562
33.781,34.486
33.729,34.414
33.68,34.345
33.634,34.28
33.59,34.218
33.549,34.16
33.511,34.105
33.476,34.053
33.443,34.004
33.412,33.957
33.383,33.913
33.356,33.871
33.331,33.832
33.308,33.797
33.287,33.765
33.269,33.736
33.252,33.711
33.238,33.688
33.228,33.667
33.222,33.649
33.221,33.635
33.226,33.622
33.237,33.612
33.259,33.603
33.296,33.594
33.35,33.588
33.426,33.582
33.528,33.579
33.661,33.575
33.826,33.57
34.026,33.562
34.259,33.549
34.523,33.532
34.813,33.509
35.122,33.479
35.445,33.444
35.774,33.404
36.103,33.361
36.425,33.316
36.733,33.273
37.024,33.232
37.293,33.196
37.538,33.165
37.755,33.139
37.944,33.121
38.103,33.109
38.233,33.104
38.335,33.106
38.411,33.12
38.461,33.147
38.488,33.193
38.495,33.262
38.482,33.358
38.454,33.487
38.412,33.649
38.361,33.844
38.303,34.072
38.241,34.328
38.178,34.609
38.115,34.909
38.052,35.221
37.99,35.539
37.93,35.858
37.872,36.171
37.817,36.473
37.762,36.759
37.707,37.024
37.653,37.261
37.598,37.464
37.546,37.628
37.496,37.753
37.448,37.841
37.402,37.897
37.359,37.927
37.318,37.936
37.281,37.932
37.247,37.918
37.215,37.897
37.184,37.871
37.153,37.84
37.12,37.808
37.083,37.775
37.04,37.743
36.992,37.71
36.938,37.677
36.879,37.644
36.815,37.611
36.745,37.578
36.67,37.543
36.591,37.507
36.509,37.469
36.426,37.43
36.342,37.391
36.256,37.352
36.171,37.313
36.088,37.276
36.009,37.24
35.935,37.204
35.869,37.167
35.811,37.128
35.762,37.086
35.723,37.042
35.696,36.997
35.68,36.952
35.676,36.906
35.681,36.858
35.697,36.809
35.72,36.758
35.751,36.706
35.784,36.652
35.82,36.596
35.855,36.536
35.886,36.474
35.912,36.411
35.932,36.348
35.945,36.288
35.953,36.23
35.954,36.175
35.949,36.121
35.938,36.067
35.922,36.014
35.901,35.961
35.873,35.908
35.84,35.858
35.801,35.81
35.757,35.766
35.71,35.726
35.659,35.692
35.603,35.665
35.544,35.645
35.481,35.631
35.416,35.623
35.351,35.62
35.286,35.621
35.221,35.626
35.156,35.637
35.09,35.653
35.024,35.673
34.958,35.696
34.891,35.721
34.824,35.743
34.755,35.763
34.685,35.778
34.614,35.788
34.542,35.793
34.47,35.791
34.398,35.782
34.327,35.766
34.258,35.743
34.193,35.713
34.131,35.677
34.074,35.635
34.021,35.587
33.973,35.532
33.929,35.471
33.89,35.404
33.856,35.334
33.826,35.262
33.802,35.192
33.78,35.125
33.763,35.061
33.749,35.004
33.739,34.952
33.732,34.905
33.728,34.861
33.725,34.817
33.724,34.77
33.722,34.719
33.72,34.661
33.716,34.597
33.709,34.527
33.7,34.454
33.686,34.378
33.667,34.3
33.643,34.222
33.614,34.146
33.582,34.075
33.547,34.01
33.512,33.95
33.48,33.895
33.453,33.847
33.436,33.804
33.43,33.767
33.44,33.737
33.468,33.713
33.518,33.695
33.595,33.681
33.7,33.669
33.835,33.66
34.001,33.652
34.197,33.644
34.422,33.634
34.673,33.62
34.945,33.604
35.233,33.586
35.531,33.566
35.833,33.545
36.134,33.526
36.428,33.508
36.713,33.492
36.981,33.479
37.229,33.469
37.454,33.461
37.654,33.454
37.828,33.446
37.977,33.436
38.106,33.424
38.217,33.407
38.313,33.387
38.392,33.365
38.453,33.339
38.494,33.311
38.513,33.282
38.513,33.254
38.494,33.231
38.457,33.215
38.405,33.21
38.339,33.219
38.264,33.246
38.183,33.296
38.099,33.373
38.014,33.481
37.928,33.623
37.846,33.801
37.767,34.013
37.695,34.255
37.629,34.522
37.569,34.81
37.517,35.111
37.472,35.42
37.433,35.73
37.398,36.034
37.367,36.328
37.337,36.606
37.309,36.865
37.281,37.102
37.253,37.314
37.224,37.5
37.192,37.658
37.158,37.788
37.121,37.893
37.084,37.973
37.045,38.032
37.004,38.074
36.962,38.1
36.917,38.113
36.87,38.113
36.821,38.103
36.769,38.083
36.713,38.054
36.654,38.018
36.592,37.98
36.527,37.94
36.459,37.899
36.39,37.856
36.32,37.813
36.252,37.769
36.188,37.723
36.13,37.675
36.08,37.625
36.037,37.572
36.002,37.518
35.975,37.464
35.957,37.411
35.946,37.358
35.942,37.307
35.941,37.258
35.944,37.21
35.95,37.164
35.956,37.118
35.963,37.073
35.968,37.028
35.97,36.985
35.97,36.944
35.966,36.903
35.959,36.863
35.948,36.822
35.933,36.778
35.914,36.73
35.89,36.678
35.86,36.621
35.826,36.561
35.787,36.498
35.744,36.433
35.695,36.367
35.639,36.299
35.578,36.232
35.512,36.166
35.443,36.1
35.373,36.037
35.301,35.976
35.228,35.919
35.155,35.867
35.082,35.821
35.008,35.784
34.933,35.755
34.859,35.734
34.784,35.72
34.708,35.712
34.632,35.709
34.557,35.709
34.482,35.713
34.408,35.719
34.335,35.727
34.265,35.736
34.197,35.748
34.132,35.762
34.069,35.777
34.009,35.796
33.951,35.815
33.895,35.832
33.842,35.846
33.791,35.854
33.742,35.857
33.695,35.853
33.651,35.844
33.612,35.83
33.577,35.809
33.547,35.782
33.521,35.749
33.499,35.708
33.481,35.662
33.467,35.61
33.457,35.554
33.447,35.494
33.437,35.431
33.425,35.366
33.41,35.3
33.392,35.233
33.371,35.167
33.348,35.101
33.322,35.034
33.293,34.965
33.261,34.894
33.227,34.822
33.193,34.749
33.159,34.677
33.125,34.606
33.091,34.537
33.056,34.47
33.019,34.406
32.982,34.346
32.945,34.288
32.911,34.233
32.88,34.179
32.854,34.126
32.836,34.073
32.828,34.02
32.835,33.967
32.859,33.915
32.906,33.864
32.979,33.816
33.082,33.771
33.22,33.732
33.392,33.7
33.599,33.674
33.838,33.652
34.107,33.631
34.4,33.607
34.713,33.577
35.038,33.541
35.371,33.5
35.704,33.456
36.03,33.412
36.344,33.37
36.641,33.333
36.917,33.303
37.168,33.282
37.391,33.271
37.584,33.267
37.747,33.271
37.88,33.279
37.984,33.292
38.061,33.307
38.114,33.323
38.146,33.339
38.159,33.352
38.158,33.363
38.144,33.37
38.118,33.374
38.08,33.375
38.027,33.374
37.962,33.372
37.885,33.368
37.802,33.367
37.717,33.369
37.634,33.38
37.556,33.404
37.486,33.446
37.426,33.513
37.376,33.608
37.338,33.737
37.309,33.902
37.289,34.104
37.274,34.341
37.265,34.609
37.259,34.9
37.256,35.208
37.254,35.525
37.253,35.842
37.25,36.154
37.244,36.453
37.232,36.735
37.214,36.997
37.191,37.232
37.161,37.439
37.125,37.616
37.081,37.763
37.031,37.881
36.975,37.972
36.914,38.038
36.851,38.081
36.786,38.105
36.72,38.113
36.653,38.107
36.586,38.091
36.519,38.065
36.451,38.032
36.383,37.994
36.314,37.952
36.245,37.908
36.176,37.863
36.108,37.817
36.039,37.772
35.973,37.727
35.909,37.682
35.852,37.636
35.8,37.588
35.756,37.537
35.717,37.484
35.685,37.43
35.659,37.376
35.64,37.323
35.628,37.272
35.621,37.225
35.618,37.182
35.616,37.143
35.616,37.109
35.617,37.08
35.62,37.055
35.623,37.031
35.627,37.009
35.631,36.988
35.633,36.963
35.633,36.935
35.631,36.903
35.625,36.864
35.616,36.818
35.602,36.765
35.583,36.703
35.558,36.635
35.529,36.56
35.495,36.481
35.457,36.399
35.414,36.317
35.366,36.235
35.315,36.156
35.259,36.081
35.199,36.011
35.135,35.946
35.069,35.887
35,35.834
34.93,35.787
34.857,35.749
34.784,35.719
34.711,35.697
34.638,35.683
34.566,35.675
34.498,35.672
34.432,35.672
34.369,35.673
34.309,35.676
34.251,35.679
34.198,35.682
34.149,35.686
34.104,35.693
34.063,35.7
34.025,35.71
33.989,35.72
33.956,35.733
33.924,35.745
33.893,35.756
33.862,35.764
33.831,35.769
33.8,35.769
33.769,35.766
33.739,35.757
33.708,35.745
33.677,35.728
33.647,35.705
33.617,35.677
33.59,35.64
33.564,35.596
33.54,35.543
33.516,35.481
33.49,35.41
33.464,35.333
33.436,35.25
33.408,35.163
33.38,35.076
33.349,34.99
33.317,34.908
33.283,34.83
33.249,34.756
33.217,34.686
33.187,34.618
33.162,34.554
33.142,34.492
33.128,34.433
33.122,34.375
33.127,34.319
33.143,34.265
33.175,34.212
33.226,34.16
33.298,34.107
33.396,34.055
33.521,34.003
33.675,33.951
33.857,33.901
34.069,33.853
34.307,33.808
34.57,33.768
34.852,33.733
35.148,33.705
35.452,33.682
35.758,33.667
36.059,33.656
36.352,33.649
36.629,33.643
36.886,33.637
37.119,33.63
37.326,33.621
37.507,33.608
37.66,33.593
37.788,33.574
37.889,33.554
37.965,33.532
38.018,33.509
38.05,33.488
38.064,33.467
38.062,33.448
38.045,33.429
38.015,33.409
37.973,33.388
37.922,33.366
37.864,33.339
37.802,33.309
37.737,33.275
37.673,33.239
37.61,33.205
37.55,33.176
37.494,33.157
37.438,33.152
37.384,33.166
37.329,33.203
37.274,33.269
37.217,33.367
37.161,33.499
37.107,33.667
37.056,33.871
37.01,34.109
36.969,34.377
36.933,34.671
36.901,34.985
36.872,35.312
36.845,35.644
36.82,35.972
36.794,36.29
36.766,36.591
36.736,36.872
36.703,37.129
36.666,37.361
36.625,37.564
36.579,37.737
36.525,37.88
36.465,37.991
36.398,38.073
36.325,38.126
36.246,38.156
36.162,38.166
36.074,38.16
35.985,38.142
35.896,38.114
35.81,38.078
35.729,38.038
35.654,37.994
35.587,37.949
35.528,37.902
35.478,37.856
35.438,37.81
35.407,37.766
35.384,37.723
35.371,37.683
35.366,37.644
35.37,37.607
35.381,37.571
35.4,37.535
35.423,37.499
35.449,37.462
35.476,37.424
35.503,37.385
35.529,37.344
35.552,37.302
35.57,37.257
35.584,37.208
35.593,37.156
35.597,37.101
35.597,37.043
35.592,36.984
35.584,36.926
35.574,36.869
35.561,36.814
35.545,36.762
35.526,36.711
35.502,36.662
35.472,36.613
35.437,36.565
35.397,36.516
35.351,36.467
35.298,36.418
35.238,36.367
35.17,36.316
35.096,36.265
35.017,36.214
34.935,36.162
34.85,36.109
34.764,36.055
34.677,35.999
34.591,35.942
34.507,35.888
34.424,35.836
34.342,35.789
34.261,35.748
34.183,35.716
34.108,35.692
34.037,35.676
33.97,35.668
33.908,35.667
33.849,35.674
33.796,35.687
33.747,35.706
33.703,35.729
33.664,35.757
33.631,35.786
33.603,35.816
33.581,35.844
33.563,35.867
33.549,35.883
33.537,35.891
33.528,35.889
33.52,35.877
33.511,35.857
33.502,35.828
33.491,35.79
33.481,35.742
33.47,35.687
33.459,35.625
33.447,35.557
33.434,35.485
33.418,35.41
33.4,35.335
33.38,35.262
33.358,35.192
33.334,35.125
33.309,35.062
33.282,35.003
33.255,34.949
33.23,34.897
33.207,34.846
33.187,34.795
33.172,34.745
33.167,34.692
33.176,34.636
33.201,34.577
33.248,34.513
33.317,34.447
33.414,34.378
33.54,34.309
33.696,34.239
33.882,34.171
34.094,34.105
34.332,34.043
34.591,33.986
34.867,33.934
35.154,33.889
35.446,33.849
35.737,33.815
36.023,33.787
36.298,33.763
36.56,33.744
36.804,33.73
37.026,33.719
37.224,33.709
37.397,33.697
37.543,33.681
37.662,33.661
37.754,33.637
37.819,33.608
37.86,33.576
37.88,33.542
37.883,33.506
37.872,33.47
37.851,33.436
37.821,33.406
37.786,33.38
37.746,33.36
37.703,33.346
37.659,33.338
37.613,33.338
37.566,33.349
37.52,33.374
37.474,33.416
37.429,33.477
37.385,33.561
37.342,33.672
37.3,33.812
37.259,33.981
37.22,34.178
37.182,34.4
37.146,34.644
37.111,34.904
37.079,35.175
37.049,35.453
37.021,35.733
36.994,36.011
36.968,36.281
36.942,36.54
36.916,36.783
36.891,37.005
36.865,37.205
36.837,37.38
36.806,37.531
36.771,37.658
36.733,37.762
36.689,37.843
36.64,37.902
36.586,37.94
36.526,37.96
36.462,37.963
36.395,37.951
36.324,37.925
36.251,37.889
36.177,37.844
36.102,37.794
36.029,37.742
35.96,37.689
35.896,37.639
35.839,37.593
35.79,37.552
35.752,37.517
35.724,37.484
35.704,37.454
35.693,37.424
35.687,37.393
35.686,37.361
35.691,37.327
35.699,37.292
35.71,37.254
35.722,37.212
35.734,37.167
35.748,37.118
35.768,37.068
35.796,37.018
35.83,36.968
35.868,36.919
35.908,36.872
35.946,36.825
35.978,36.778
36.001,36.732
36.012,36.686
36.008,36.64
35.988,36.592
35.953,36.543
35.903,36.491
35.841,36.435
35.77,36.376
35.692,36.315
35.61,36.25
35.527,36.182
35.445,36.11
35.364,36.034
35.285,35.956
35.208,35.876
35.134,35.798
35.062,35.723
34.991,35.655
34.922,35.594
34.853,35.544
34.783,35.503
34.712,35.475
34.641,35.457
34.569,35.45
34.498,35.451
34.426,35.46
34.354,35.475
34.283,35.494
34.216,35.517
34.153,35.543
34.096,35.57
34.043,35.594
33.996,35.616
33.953,35.633
33.913,35.646
33.878,35.653
33.847,35.655
33.818,35.651
33.791,35.641
33.768,35.626
33.747,35.607
33.729,35.585
33.715,35.561
33.705,35.533
33.697,35.503
33.692,35.467
33.69,35.427
33.69,35.382
33.691,35.33
33.692,35.273
33.692,35.212
33.689,35.147
33.683,35.078
33.673,35.008
33.658,34.938
33.638,34.868
33.614,34.797
33.588,34.727
33.56,34.655
33.533,34.584
33.507,34.513
33.484,34.445
33.466,34.379
33.455,34.316
33.454,34.257
33.468,34.201
33.499,34.147
33.55,34.096
33.625,34.047
33.727,34
33.858,33.952
34.018,33.903
34.206,33.851
34.42,33.797
34.656,33.742
34.909,33.687
35.175,33.633
35.449,33.58
35.725,33.53
35.997,33.485
36.26,33.447
36.51,33.416
36.743,33.39
36.956,33.37
37.145,33.354
37.307,33.34
37.443,33.328
37.553,33.317
37.639,33.306
37.701,33.296
37.743,33.285
37.767,33.274
37.774,33.263
37.767,33.253
37.75,33.248
37.723,33.25
37.69,33.263
37.654,33.292
37.614,33.341
37.573,33.415
37.531,33.519
37.489,33.655
37.449,33.825
37.412,34.027
37.378,34.258
37.347,34.512
37.32,34.785
37.295,35.07
37.273,35.362
37.253,35.654
37.235,35.94
37.217,36.215
37.199,36.474
37.179,36.712
37.157,36.927
37.134,37.118
37.11,37.283
37.085,37.423
37.059,37.539
37.034,37.634
37.01,37.71
36.986,37.769
36.961,37.814
36.934,37.845
36.905,37.865
36.871,37.874
36.833,37.874
36.788,37.866
36.736,37.853
36.678,37.834
36.614,37.813
36.546,37.789
36.475,37.764
36.403,37.738
36.332,37.709
36.263,37.677
36.198,37.643
36.138,37.608
36.084,37.572
36.035,37.536
35.991,37.5
35.954,37.463
35.922,37.426
35.897,37.386
35.878,37.345
35.863,37.302
35.852,37.257
35.845,37.212
35.84,37.165
35.838,37.117
35.838,37.07
35.84,37.024
35.844,36.98
35.848,36.939
35.852,36.902
35.857,36.866
35.861,36.83
35.864,36.792
35.865,36.753
35.863,36.711
35.856,36.666
35.845,36.619
35.829,36.568
35.808,36.515
35.783,36.457
35.754,36.396
35.721,36.329
35.684,36.259
35.642,36.185
35.596,36.109
35.545,36.032
35.492,35.957
35.436,35.885
35.376,35.818
35.311,35.758
35.242,35.706
35.168,35.663
35.091,35.624
35.015,35.589
34.938,35.556
34.861,35.524
34.786,35.497
34.712,35.476
34.641,35.464
34.571,35.46
34.502,35.467
34.431,35.483
34.36,35.507
34.289,35.536
34.219,35.567
34.153,35.598
34.093,35.626
34.039,35.648
33.993,35.665
33.956,35.675
33.929,35.68
33.913,35.677
33.905,35.669
33.904,35.652
33.911,35.628
33.923,35.598
33.939,35.562
33.956,35.52
33.972,35.474
33.985,35.425
33.995,35.372
34,35.318
34,35.261
33.996,35.204
33.986,35.146
33.972,35.083
33.953,35.017
33.929,34.945
33.903,34.868
33.875,34.786
33.846,34.702
33.817,34.616
33.786,34.53
33.753,34.448
33.717,34.371
33.679,34.299
33.638,34.234
33.595,34.176
33.553,34.126
33.512,34.081
33.475,34.042
33.446,34.008
33.427,33.978
33.422,33.951
33.436,33.926
33.472,33.903
33.535,33.882
33.624,33.86
33.741,33.839
33.884,33.816
34.054,33.792
34.249,33.764
34.465,33.733
34.7,33.697
34.948,33.657
35.205,33.614
35.466,33.571
35.726,33.529
35.981,33.489
36.227,33.454
36.459,33.426
36.673,33.407
36.866,33.397
37.037,33.399
37.184,33.416
37.307,33.448
37.407,33.5
37.485,33.573
37.541,33.671
37.578,33.795
37.598,33.948
37.604,34.129
37.598,34.336
37.584,34.565
37.562,34.812
37.534,35.072
37.503,35.341
37.468,35.614
37.432,35.888
37.396,36.157
37.362,36.416
37.329,36.662
37.296,36.889
37.265,37.096
37.235,37.281
37.207,37.441
37.182,37.578
37.159,37.693
37.138,37.789
37.12,37.866
37.106,37.926
37.095,37.969
37.087,37.999
37.08,38.014
37.072,38.016
37.064,38.006
37.053,37.984
37.041,37.951
37.026,37.911
37.007,37.865
36.984,37.817
36.957,37.768
36.926,37.72
36.889,37.674
36.849,37.629
36.805,37.586
36.758,37.543
36.708,37.503
36.655,37.465
36.597,37.431
36.538,37.401
36.476,37.375
36.413,37.353
36.35,37.334
36.286,37.318
36.223,37.304
36.161,37.291
36.102,37.277
36.049,37.261
35.999,37.244
35.955,37.225
35.916,37.205
35.882,37.183
35.855,37.158
35.835,37.128
35.821,37.092
35.811,37.048
35.805,36.996
35.802,36.935
35.8,36.868
35.8,36.795
35.801,36.717
35.803,36.637
35.805,36.555
35.806,36.473
35.806,36.392
35.807,36.313
35.806,36.24
35.805,36.171
35.804,36.107
35.801,36.051
35.796,36.004
35.787,35.965
35.773,35.937
35.753,35.918
35.726,35.907
35.694,35.903
35.654,35.905
35.608,35.911
35.554,35.92
35.494,35.931
35.43,35.944
35.364,35.957
35.298,35.968
35.232,35.977
35.168,35.981
35.103,35.981
35.039,35.975
34.975,35.964
34.912,35.946
34.849,35.921
34.787,35.892
34.726,35.859
34.665,35.823
34.606,35.787
34.549,35.752
34.494,35.717
34.441,35.683
34.39,35.648
34.343,35.613
34.298,35.576
34.256,35.537
34.215,35.496
34.175,35.453
34.138,35.407
34.103,35.357
34.071,35.304
34.042,35.247
34.016,35.186
33.994,35.12
33.975,35.049
33.96,34.972
33.949,34.892
33.942,34.808
33.937,34.724
33.934,34.642
33.932,34.564
33.931,34.491
33.93,34.425
33.928,34.366
33.924,34.315
33.918,34.272
33.909,34.234
33.895,34.202
33.879,34.174
33.862,34.15
33.85,34.129
33.842,34.111
33.839,34.094
33.838,34.077
33.835,34.06
33.827,34.039
33.814,34.014
33.792,33.987
33.762,33.956
33.724,33.922
33.681,33.886
33.632,33.848
33.58,33.81
33.529,33.772
33.481,33.737
33.442,33.705
33.414,33.675
33.403,33.646
33.412,33.619
33.442,33.593
33.498,33.567
33.582,33.542
33.695,33.517
33.837,33.495
34.007,33.476
34.201,33.466
34.416,33.467
34.648,33.484
34.896,33.523
35.152,33.587
35.412,33.678
35.672,33.799
35.925,33.949
36.169,34.128
36.398,34.336
36.61,34.569
36.801,34.824
36.971,35.096
37.118,35.379
37.241,35.668
37.34,35.957
37.417,36.24
37.474,36.51
37.515,36.762
37.54,36.992
37.553,37.197
37.553,37.376
37.544,37.528
37.528,37.655
37.508,37.758
37.486,37.839
37.462,37.9
37.436,37.942
37.41,37.968
37.384,37.98
37.358,37.981
37.332,37.974
37.306,37.961
37.281,37.944
37.255,37.924
37.228,37.902
37.201,37.879
37.175,37.856
37.149,37.833
37.126,37.811
37.104,37.791
37.083,37.774
37.064,37.759
37.044,37.747
37.024,37.737
37.002,37.728
36.979,37.718
36.954,37.707
36.927,37.693
36.897,37.674
36.863,37.649
36.827,37.618
36.788,37.583
36.746,37.545
36.702,37.505
36.656,37.462
36.607,37.417
36.554,37.37
36.499,37.321
36.44,37.272
36.377,37.222
36.312,37.172
36.245,37.125
36.18,37.079
36.116,37.034
36.055,36.988
35.997,36.94
35.943,36.888
35.894,36.831
35.852,36.769
35.816,36.702
35.785,36.63
35.761,36.552
35.742,36.47
35.728,36.389
35.719,36.31
35.713,36.237
35.71,36.172
35.709,36.117
35.708,36.072
35.707,36.037
35.707,36.014
35.705,36
35.704,35.995
35.704,35.997
35.704,36.005
35.705,36.016
35.704,36.029
35.702,36.042
35.697,36.055
35.689,36.067
35.679,36.076
35.665,36.083
35.646,36.087
35.622,36.088
35.593,36.088
35.56,36.085
35.522,36.08
35.479,36.073
35.431,36.062
35.38,36.045
35.326,36.022
35.27,35.994
35.213,35.958
35.156,35.918
35.098,35.874
35.04,35.827
34.983,35.778
34.926,35.727
34.871,35.673
34.819,35.617
34.768,35.557
34.719,35.495
34.672,35.429
34.628,35.361
34.585,35.29
34.545,35.219
34.507,35.15
34.472,35.081
34.438,35.015
34.406,34.951
34.377,34.889
34.349,34.829
34.321,34.772
34.294,34.717
34.265,34.666
34.237,34.618
34.209,34.573
34.184,34.532
34.16,34.495
34.14,34.462
34.123,34.431
34.111,34.401
34.101,34.371
34.094,34.341
34.089,34.309
34.085,34.274
34.081,34.239
34.075,34.204
34.067,34.17
34.053,34.137
34.035,34.106
34.011,34.079
33.984,34.055
33.952,34.036
33.918,34.02
33.881,34.005
33.84,33.99
33.798,33.975
33.755,33.957
33.712,33.939
33.669,33.918
33.626,33.896
33.582,33.872
33.537,33.846
33.493,33.818
33.449,33.787
33.407,33.754
33.366,33.719
33.327,33.681
33.292,33.642
33.262,33.601
33.24,33.559
33.226,33.519
33.224,33.482
33.234,33.455
33.259,33.441
33.303,33.447
33.367,33.476
33.454,33.532
33.567,33.616
33.705,33.73
33.869,33.873
34.059,34.042
34.271,34.237
34.502,34.456
34.748,34.694
35.004,34.948
35.266,35.211
35.528,35.48
35.786,35.748
36.033,36.008
36.267,36.258
36.482,36.493
36.677,36.712
36.849,36.915
36.997,37.099
37.12,37.265
37.219,37.412
37.295,37.539
37.35,37.646
37.386,37.733
37.405,37.804
37.408,37.858
37.4,37.899
37.382,37.927
37.357,37.943
37.326,37.947
37.29,37.94
37.251,37.921
37.209,37.892
37.166,37.853
37.122,37.805
37.078,37.752
37.035,37.693
36.994,37.633
36.96,37.574
36.935,37.516
36.919,37.463
36.909,37.412
36.902,37.366
36.895,37.324
36.884,37.286
36.869,37.254
36.848,37.229
36.818,37.21
36.781,37.197
36.738,37.189
36.691,37.183
36.642,37.177
36.593,37.17
36.544,37.16
36.498,37.145
36.456,37.127
36.418,37.104
36.382,37.076
36.349,37.042
36.315,37.001
36.281,36.952
36.244,36.897
36.203,36.834
36.159,36.765
36.111,36.689
36.058,36.609
36.003,36.527
35.946,36.445
35.887,36.367
35.827,36.292
35.767,36.223
35.709,36.159
35.654,36.099
35.604,36.045
35.56,35.995
35.52,35.952
35.486,35.917
35.456,35.889
35.431,35.869
35.411,35.855
35.397,35.847
35.386,35.843
35.38,35.843
35.377,35.845
35.377,35.848
35.381,35.852
35.388,35.856
35.396,35.86
35.407,35.863
35.419,35.864
35.431,35.86
35.442,35.851
35.451,35.836
35.456,35.816
35.458,35.792
35.456,35.764
35.451,35.735
35.441,35.706
35.425,35.678
35.403,35.651
35.375,35.627
35.341,35.604
35.303,35.58
35.262,35.556
35.216,35.532
35.169,35.505
35.12,35.475
35.071,35.441
35.02,35.404
34.969,35.364
34.917,35.321
34.866,35.277
34.815,35.231
34.765,35.182
34.715,35.131
34.665,35.076
34.616,35.017
34.568,34.954
34.521,34.888
34.475,34.819
34.431,34.747
34.388,34.675
34.344,34.604
34.3,34.534
34.255,34.467
34.208,34.403
34.16,34.344
34.111,34.288
34.061,34.236
34.012,34.189
33.964,34.147
33.918,34.111
33.877,34.081
33.839,34.056
33.807,34.038
33.78,34.024
33.758,34.015
33.741,34.009
33.728,34.004
33.718,33.998
33.71,33.989
33.702,33.977
33.695,33.959
33.687,33.937
33.679,33.911
33.671,33.882
33.661,33.853
33.65,33.824
33.638,33.797
33.625,33.77
33.61,33.746
33.594,33.724
33.576,33.704
33.557,33.684
33.536,33.665
33.516,33.647
33.496,33.628
33.476,33.611
33.458,33.594
33.443,33.576
33.432,33.557
33.428,33.534
33.433,33.506
33.451,33.476
33.483,33.443
33.532,33.409
33.601,33.374
33.693,33.342
33.808,33.316
33.946,33.3
34.104,33.297
34.282,33.311
34.476,33.346
34.684,33.405
34.901,33.489
35.123,33.601
35.346,33.74
35.566,33.907
35.78,34.1
35.985,34.315
36.177,34.551
36.355,34.802
36.515,35.065
36.656,35.334
36.776,35.604
36.875,35.87
36.955,36.127
37.016,36.37
37.059,36.594
37.086,36.797
37.099,36.977
37.099,37.134
37.088,37.269
37.069,37.382
37.043,37.473
37.014,37.545
36.983,37.598
36.949,37.633
36.913,37.652
36.876,37.656
36.838,37.65
36.8,37.635
36.761,37.612
36.722,37.582
36.683,37.547
36.645,37.51
36.61,37.472
36.575,37.434
36.542,37.398
36.51,37.363
36.479,37.33
36.449,37.297
36.42,37.266
36.39,37.236
36.36,37.206
36.327,37.178
36.294,37.149
36.258,37.121
36.221,37.094
36.181,37.067
36.14,37.042
36.096,37.02
36.05,37.002
36.003,36.986
35.956,36.973
35.909,36.959
35.862,36.945
35.817,36.928
35.773,36.909
35.729,36.886
35.686,36.858
35.642,36.824
35.6,36.784
35.558,36.735
35.518,36.678
35.479,36.613
35.44,36.542
35.403,36.467
35.368,36.39
35.337,36.312
35.311,36.237
35.292,36.165
35.279,36.098
35.274,36.039
35.275,35.986
35.282,35.939
35.294,35.898
35.311,35.862
35.33,35.831
35.352,35.806
35.372,35.786
35.388,35.772
35.396,35.764
35.396,35.761
35.387,35.762
35.371,35.764
35.351,35.766
35.33,35.766
35.309,35.764
35.291,35.76
35.275,35.753
35.263,35.742
35.253,35.729
35.245,35.715
35.234,35.701
35.222,35.686
35.206,35.67
35.188,35.655
35.167,35.639
35.142,35.623
35.113,35.606
35.08,35.589
35.043,35.572
35.002,35.555
34.959,35.537
34.914,35.517
34.865,35.495
34.814,35.469
34.76,35.438
34.702,35.4
34.642,35.357
34.58,35.307
34.515,35.252
34.448,35.192
34.38,35.128
34.311,35.062
34.243,34.993
34.176,34.923
34.111,34.851
34.049,34.778
33.99,34.703
33.936,34.627
33.887,34.55
33.844,34.476
33.806,34.407
33.772,34.345
33.742,34.293
33.718,34.249
33.699,34.213
33.686,34.183
33.678,34.158
33.674,34.136
33.672,34.115
33.673,34.092
33.676,34.068
33.681,34.042
33.685,34.015
33.688,33.987
33.687,33.959
33.684,33.93
33.678,33.902
33.668,33.876
33.655,33.85
33.638,33.827
33.616,33.806
33.59,33.788
33.561,33.772
33.529,33.759
33.496,33.747
33.463,33.737
33.432,33.727
33.404,33.717
33.379,33.704
33.359,33.686
33.344,33.663
33.337,33.635
33.34,33.602
33.356,33.567
33.387,33.529
33.435,33.489
33.505,33.45
33.598,33.412
33.717,33.376
33.862,33.342
34.034,33.311
34.228,33.283
34.441,33.257
34.668,33.234
34.907,33.212
35.151,33.195
35.396,33.184
35.635,33.18
35.865,33.184
36.081,33.2
36.279,33.229
36.46,33.274
36.621,33.336
36.763,33.418
36.886,33.522
36.989,33.648
37.074,33.798
37.14,33.97
37.19,34.164
37.224,34.378
37.245,34.61
37.253,34.855
37.25,35.11
37.237,35.369
37.216,35.628
37.189,35.882
37.159,36.128
37.126,36.36
37.092,36.578
37.056,36.777
37.021,36.954
36.987,37.109
36.955,37.238
36.925,37.342
36.897,37.421
36.871,37.477
36.846,37.512
36.822,37.528
36.799,37.528
36.777,37.515
36.754,37.491
36.729,37.46
36.703,37.422
36.677,37.38
36.65,37.335
36.624,37.288
36.6,37.241
36.578,37.193
36.558,37.145
36.539,37.1
36.522,37.056
36.504,37.015
36.485,36.976
36.463,36.939
36.439,36.904
36.408,36.871
36.372,36.84
36.331,36.81
36.284,36.782
36.233,36.753
36.178,36.725
36.121,36.698
36.062,36.672
36.003,36.648
35.945,36.626
35.889,36.605
35.837,36.584
35.787,36.563
35.741,36.54
35.697,36.516
35.658,36.489
35.624,36.46
35.593,36.426
35.567,36.387
35.543,36.342
35.523,36.29
35.507,36.231
35.493,36.166
35.483,36.098
35.476,36.028
35.471,35.957
35.467,35.888
35.465,35.822
35.463,35.761
35.462,35.705
35.462,35.654
35.462,35.61
35.463,35.573
35.464,35.542
35.464,35.519
35.464,35.501
35.462,35.489
35.461,35.481
35.461,35.478
35.459,35.478
35.454,35.478
35.447,35.479
35.435,35.478
35.419,35.477
35.399,35.475
35.375,35.472
35.346,35.467
35.311,35.463
35.27,35.459
35.224,35.454
35.175,35.448
35.122,35.441
35.068,35.432
35.011,35.422
34.953,35.41
34.893,35.397
34.833,35.382
34.772,35.366
34.712,35.35
34.652,35.333
34.593,35.316
34.533,35.295
34.475,35.27
34.419,35.238
34.363,35.2
34.31,35.155
34.259,35.103
34.21,35.045
34.164,34.98
34.122,34.911
34.086,34.837
34.058,34.76
34.039,34.681
34.028,34.601
34.022,34.522
34.017,34.443
34.008,34.366
33.994,34.293
33.974,34.225
33.95,34.163
33.924,34.109
33.896,34.064
33.867,34.025
33.839,33.993
33.813,33.964
33.788,33.938
33.767,33.914
33.747,33.89
33.729,33.864
33.711,33.836
33.692,33.806
33.672,33.775
33.65,33.744
33.625,33.714
33.598,33.684
33.569,33.656
33.539,33.628
33.509,33.601
33.48,33.577
33.453,33.555
33.429,33.538
33.412,33.524
33.404,33.514
33.409,33.508
33.43,33.504
33.467,33.501
33.524,33.498
33.601,33.492
33.701,33.482
33.827,33.465
33.977,33.441
34.153,33.409
34.35,33.369
34.567,33.325
34.799,33.279
35.042,33.233
35.29,33.191
35.539,33.156
35.782,33.129
36.015,33.11
36.234,33.098
36.435,33.093
36.615,33.091
36.775,33.092
36.911,33.095
37.023,33.1
37.115,33.109
37.186,33.121
37.237,33.139
37.272,33.166
37.291,33.204
37.298,33.257
37.294,33.328
37.283,33.419
37.265,33.531
37.243,33.664
37.218,33.818
37.191,33.994
37.163,34.19
37.132,34.407
37.101,34.639
37.068,34.885
37.037,35.139
37.005,35.395
36.973,35.649
36.941,35.895
36.911,36.13
36.883,36.351
36.859,36.555
36.839,36.738
36.822,36.899
36.809,37.035
36.797,37.147
36.786,37.234
36.776,37.297
36.764,37.338
36.75,37.357
36.734,37.359
36.714,37.346
36.692,37.321
36.666,37.289
36.637,37.252
36.605,37.214
36.572,37.176
36.536,37.136
36.498,37.097
36.456,37.059
36.413,37.023
36.367,36.989
36.32,36.959
36.271,36.932
36.219,36.908
36.166,36.884
36.111,36.861
36.056,36.836
36.001,36.809
35.948,36.78
35.896,36.75
35.847,36.718
35.802,36.684
35.76,36.648
35.722,36.609
35.688,36.568
35.658,36.524
35.631,36.478
35.607,36.431
35.587,36.384
35.57,36.339
35.558,36.294
35.548,36.25
35.542,36.207
35.54,36.165
35.541,36.123
35.545,36.081
35.551,36.036
35.559,35.988
35.567,35.937
35.575,35.884
35.582,35.829
35.585,35.772
35.583,35.716
35.575,35.663
35.562,35.62
35.542,35.587
35.517,35.563
35.487,35.545
35.452,35.53
35.413,35.517
35.371,35.505
35.327,35.492
35.282,35.477
35.236,35.461
35.19,35.443
35.144,35.423
35.098,35.4
35.052,35.376
35.004,35.35
34.954,35.324
34.902,35.299
34.848,35.276
34.791,35.257
34.731,35.242
34.669,35.232
34.605,35.225
34.54,35.219
34.476,35.214
34.414,35.21
34.354,35.204
34.296,35.197
34.242,35.188
34.192,35.177
34.145,35.163
34.103,35.147
34.064,35.129
34.029,35.108
33.997,35.085
33.97,35.059
33.948,35.03
33.932,34.998
33.922,34.964
33.918,34.929
33.918,34.893
33.922,34.856
33.93,34.818
33.941,34.777
33.953,34.734
33.966,34.686
33.977,34.634
33.984,34.578
33.988,34.517
33.986,34.453
33.979,34.386
33.966,34.316
33.948,34.245
33.925,34.173
33.898,34.1
33.866,34.027
33.832,33.954
33.795,33.88
33.756,33.804
33.716,33.728
33.674,33.652
33.631,33.576
33.588,33.502
33.545,33.431
33.503,33.364
33.464,33.302
33.427,33.245
33.393,33.194
33.362,33.149
33.335,33.109
33.314,33.074
33.299,33.044
33.294,33.02
33.3,33.001
33.319,32.988
33.352,32.981
33.404,32.979
33.478,32.981
33.578,32.989
33.704,33.002
33.858,33.018
34.038,33.037
34.243,33.056
34.47,33.075
34.716,33.091
34.976,33.102
35.243,33.109
35.512,33.11
35.779,33.104
36.038,33.091
36.284,33.071
36.511,33.045
36.716,33.014
36.897,32.979
37.052,32.941
37.181,32.9
37.284,32.858
37.362,32.817
37.418,32.778
37.453,32.741
37.471,32.707
37.474,32.679
37.463,32.658
37.442,32.65
37.412,32.659
37.376,32.691
37.336,32.75
37.294,32.839
37.249,32.961
37.203,33.115
37.158,33.302
37.113,33.521
37.07,33.768
37.029,34.041
36.991,34.332
36.956,34.636
36.923,34.945
36.892,35.253
36.86,35.551
36.827,35.834
36.793,36.097
36.758,36.337
36.725,36.552
36.695,36.74
36.668,36.902
36.645,37.038
36.627,37.149
36.612,37.236
36.601,37.3
36.591,37.342
36.581,37.363
36.57,37.367
36.556,37.357
36.539,37.336
36.516,37.307
36.487,37.274
36.449,37.24
36.405,37.204
36.352,37.167
36.291,37.13
36.224,37.093
36.152,37.057
36.077,37.022
36.002,36.989
35.929,36.957
35.858,36.926
35.791,36.894
35.73,36.861
35.675,36.824
35.628,36.783
35.588,36.74
35.555,36.695
35.528,36.648
35.507,36.599
35.491,36.55
35.48,36.501
35.473,36.454
35.469,36.408
35.469,36.363
35.472,36.318
35.476,36.273
35.483,36.228
35.491,36.183
35.501,36.14
35.511,36.098
35.521,36.058
35.531,36.018
35.54,35.978
35.546,35.937
35.549,35.893
35.549,35.844
35.546,35.791
35.539,35.734
35.529,35.673
35.513,35.608
35.493,35.54
35.469,35.472
35.44,35.405
35.408,35.339
35.372,35.277
35.331,35.219
35.287,35.166
35.241,35.119
35.191,35.079
35.139,35.048
35.084,35.027
35.025,35.016
34.962,35.016
34.897,35.026
34.83,35.044
34.762,35.067
34.695,35.095
34.628,35.126
34.562,35.158
34.498,35.191
34.437,35.222
34.377,35.251
34.32,35.276
34.264,35.296
34.212,35.31
34.162,35.318
34.115,35.32
34.068,35.314
34.022,35.299
33.978,35.275
33.935,35.242
33.893,35.201
33.854,35.155
33.817,35.104
33.783,35.051
33.751,34.996
33.723,34.939
33.698,34.882
33.677,34.825
33.661,34.771
33.648,34.718
33.637,34.668
33.626,34.622
33.615,34.58
33.606,34.541
33.595,34.504
33.582,34.47
33.568,34.437
33.552,34.404
33.535,34.371
33.519,34.337
33.502,34.302
33.485,34.266
33.467,34.228
33.448,34.189
33.427,34.147
33.406,34.104
33.384,34.059
33.362,34.014
33.337,33.969
33.312,33.925
33.287,33.882
33.263,33.841
33.242,33.801
33.224,33.764
33.212,33.728
33.206,33.693
33.21,33.66
33.226,33.626
33.254,33.594
33.298,33.562
33.36,33.53
33.441,33.501
33.546,33.472
33.675,33.444
33.828,33.418
34.007,33.394
34.207,33.372
34.426,33.352
34.662,33.333
34.908,33.316
35.161,33.301
35.416,33.286
35.669,33.273
35.915,33.261
36.15,33.253
36.368,33.252
36.566,33.262
36.742,33.287
36.895,33.33
37.025,33.397
37.131,33.491
37.215,33.615
37.276,33.77
37.316,33.955
37.337,34.169
37.341,34.406
37.33,34.663
37.309,34.934
37.281,35.216
37.246,35.501
37.208,35.784
37.166,36.06
37.122,36.322
37.075,36.567
37.028,36.788
36.98,36.985
36.932,37.156
36.884,37.301
36.836,37.419
36.787,37.511
36.74,37.579
36.695,37.622
36.654,37.644
36.615,37.647
36.579,37.634
36.544,37.608
36.512,37.572
36.483,37.529
36.457,37.483
36.433,37.434
36.411,37.386
36.391,37.341
36.37,37.301
36.35,37.268
36.327,37.242
36.303,37.22
36.275,37.201
36.245,37.183
36.21,37.162
36.17,37.138
36.126,37.11
36.075,37.075
36.02,37.034
35.96,36.988
35.894,36.936
35.825,36.88
35.752,36.82
35.677,36.759
35.603,36.698
35.531,36.64
35.462,36.586
35.398,36.533
35.34,36.483
35.289,36.434
35.246,36.387
35.213,36.34
35.188,36.292
35.172,36.243
35.162,36.191
35.159,36.135
35.16,36.073
35.165,36.006
35.173,35.933
35.183,35.855
35.193,35.773
35.202,35.687
35.211,35.598
35.217,35.507
35.22,35.418
35.222,35.331
35.222,35.248
35.22,35.171
35.217,35.101
35.213,35.04
35.207,34.989
35.198,34.95
35.187,34.924
35.174,34.912
35.155,34.913
35.132,34.927
35.103,34.951
35.071,34.984
35.036,35.022
35,35.064
34.963,35.107
34.924,35.149
34.881,35.188
34.836,35.223
34.789,35.254
34.739,35.278
34.687,35.295
34.632,35.304
34.574,35.305
34.512,35.297
34.449,35.28
34.384,35.256
34.319,35.225
34.255,35.191
34.191,35.153
34.13,35.113
34.071,35.071
34.016,35.028
33.966,34.984
33.92,34.939
33.881,34.893
33.848,34.844
33.82,34.793
33.796,34.739
33.776,34.682
33.758,34.62
33.743,34.555
33.73,34.488
33.719,34.419
33.71,34.348
33.701,34.274
33.69,34.198
33.677,34.12
33.663,34.041
33.648,33.962
33.632,33.883
33.616,33.806
33.598,33.733
33.579,33.665
33.558,33.601
33.536,33.542
33.513,33.488
33.488,33.435
33.461,33.382
33.432,33.327
33.401,33.269
33.369,33.21
33.335,33.149
33.301,33.088
33.267,33.028
33.233,32.971
33.199,32.917
33.167,32.868
33.135,32.823
33.107,32.784
33.083,32.749
33.068,32.72
33.064,32.696
33.074,32.679
33.103,32.673
33.153,32.681
33.229,32.707
33.334,32.755
33.47,32.829
33.637,32.933
33.835,33.067
34.059,33.232
34.305,33.427
34.569,33.651
34.845,33.898
35.128,34.164
35.411,34.445
35.687,34.736
35.95,35.032
36.197,35.328
36.425,35.618
36.63,35.897
36.812,36.161
36.97,36.404
37.102,36.624
37.208,36.819
37.289,36.988
37.346,37.133
37.381,37.254
37.397,37.352
37.396,37.429
37.38,37.486
37.352,37.526
37.314,37.55
37.27,37.561
37.221,37.56
37.171,37.549
37.121,37.529
37.074,37.501
37.028,37.467
36.987,37.426
36.949,37.38
36.915,37.329
36.884,37.274
36.855,37.214
36.827,37.152
36.801,37.088
36.776,37.025
36.752,36.964
36.727,36.906
36.702,36.851
36.678,36.8
36.655,36.752
36.633,36.706
36.61,36.661
36.586,36.618
36.562,36.576
36.536,36.536
36.51,36.498
36.483,36.461
36.454,36.425
36.424,36.389
36.39,36.354
36.352,36.318
36.308,36.28
36.259,36.24
36.205,36.197
36.148,36.149
36.088,36.098
36.026,36.042
35.962,35.981
35.897,35.916
35.833,35.846
35.771,35.772
35.712,35.694
35.657,35.613
35.604,35.532
35.554,35.453
35.508,35.378
35.465,35.307
35.429,35.243
35.399,35.186
35.375,35.137
35.358,35.095
35.348,35.061
35.344,35.037
35.347,35.02
35.356,35.012
35.369,35.012
35.386,35.02
35.405,35.036
35.426,35.061
35.445,35.092
35.463,35.129
35.479,35.168
35.492,35.206
35.501,35.241
35.506,35.271
35.507,35.294
35.502,35.311
35.493,35.321
35.479,35.324
35.462,35.319
35.441,35.306
35.416,35.285
35.387,35.256
35.354,35.221
35.318,35.18
35.28,35.134
35.238,35.084
35.191,35.033
35.14,34.98
35.084,34.928
35.025,34.877
34.963,34.827
34.901,34.778
34.837,34.729
34.773,34.68
34.709,34.632
34.646,34.583
34.584,34.533
34.522,34.482
34.461,34.429
34.4,34.372
34.34,34.312
34.28,34.247
34.22,34.179
34.161,34.108
34.105,34.035
34.051,33.961
34,33.888
33.953,33.815
33.908,33.746
33.866,33.681
33.828,33.62
33.794,33.562
33.763,33.509
33.736,33.458
33.712,33.408
33.688,33.358
33.665,33.308
33.642,33.257
33.619,33.205
33.595,33.153
33.569,33.101
33.541,33.052
33.51,33.006
33.479,32.966
33.447,32.936
33.417,32.919
33.387,32.919
33.359,32.941
33.331,32.988
33.301,33.065
33.271,33.176
33.24,33.322
33.209,33.505
33.179,33.723
33.15,33.973
33.125,34.247
33.102,34.542
33.083,34.848
33.069,35.161
33.061,35.475
33.063,35.783
33.075,36.079
33.101,36.358
33.142,36.616
33.201,36.848
33.279,37.053
33.379,37.23
33.505,37.378
33.66,37.499
33.841,37.593
34.046,37.664
34.274,37.713
34.52,37.744
34.781,37.758
35.051,37.758
35.325,37.745
35.597,37.723
35.864,37.693
36.119,37.657
36.36,37.616
36.584,37.57
36.786,37.523
36.967,37.475
37.123,37.427
37.255,37.382
37.362,37.34
37.446,37.302
37.509,37.268
37.554,37.237
37.581,37.211
37.594,37.187
37.594,37.166
37.585,37.146
37.568,37.125
37.546,37.102
37.52,37.077
37.491,37.048
37.458,37.017
37.422,36.984
37.384,36.949
37.345,36.912
37.305,36.873
37.263,36.83
37.221,36.785
37.18,36.738
37.141,36.688
37.104,36.636
37.069,36.58
37.036,36.522
37.005,36.46
36.976,36.395
36.95,36.327
36.925,36.255
36.902,36.179
36.879,36.099
36.855,36.015
36.83,35.929
36.804,35.842
36.777,35.758
36.747,35.676
36.716,35.6
36.683,35.53
36.647,35.467
36.607,35.412
36.564,35.364
36.518,35.326
36.469,35.297
36.417,35.277
36.361,35.267
36.301,35.266
36.237,35.271
36.171,35.282
36.105,35.296
36.04,35.311
35.977,35.327
35.917,35.341
35.859,35.353
35.807,35.362
35.758,35.368
35.715,35.371
35.677,35.373
35.643,35.373
35.615,35.371
35.592,35.367
35.574,35.361
35.56,35.352
35.55,35.339
35.543,35.323
35.539,35.303
35.537,35.28
35.536,35.254
35.536,35.223
35.538,35.187
35.541,35.145
35.545,35.097
35.549,35.045
35.552,34.987
35.554,34.924
35.552,34.857
35.547,34.786
35.538,34.712
35.525,34.638
35.506,34.563
35.483,34.489
35.456,34.416
35.426,34.344
35.393,34.274
35.357,34.206
35.318,34.14
35.278,34.075
35.235,34.013
35.189,33.953
35.142,33.894
35.091,33.835
35.037,33.777
34.98,33.72
34.92,33.663
34.857,33.604
34.791,33.542
34.722,33.479
34.65,33.413
34.575,33.345
34.498,33.278
34.42,33.214
34.343,33.153
34.267,33.099
34.194,33.054
34.125,33.02
34.06,33.001
34,33.001
33.945,33.022
33.893,33.068
33.846,33.142
33.804,33.246
33.767,33.383
33.733,33.554
33.704,33.757
33.677,33.99
33.653,34.247
33.633,34.523
33.614,34.811
33.597,35.105
33.581,35.399
33.565,35.687
33.549,35.964
33.533,36.227
33.517,36.473
33.5,36.699
33.483,36.901
33.467,37.08
33.453,37.236
33.44,37.368
33.429,37.479
33.419,37.57
33.411,37.642
33.404,37.698
33.399,37.74
33.396,37.769
33.391,37.788
33.385,37.798
33.376,37.799
33.363,37.792
33.348,37.776
33.33,37.754
33.308,37.725
33.283,37.691
33.255,37.652
33.226,37.61
33.199,37.564
33.177,37.516
33.161,37.465
33.156,37.412
33.163,37.357
33.185,37.303
33.228,37.249
33.293,37.196
33.384,37.143
33.504,37.092
33.654,37.043
33.832,36.994
34.04,36.947
34.275,36.903
34.533,36.862
34.811,36.825
35.102,36.789
35.403,36.754
35.705,36.72
36.002,36.684
36.288,36.645
36.558,36.601
36.808,36.553
37.035,36.498
37.235,36.439
37.408,36.373
37.552,36.303
37.669,36.229
37.76,36.152
37.826,36.074
37.872,35.996
37.898,35.917
37.909,35.838
37.906,35.759
37.893,35.681
37.869,35.606
37.837,35.535
37.799,35.47
37.756,35.413
37.71,35.362
37.661,35.319
37.61,35.283
37.559,35.255
37.508,35.233
37.456,35.218
37.405,35.208
37.355,35.202
37.307,35.198
37.263,35.196
37.222,35.197
37.186,35.2
37.153,35.206
37.125,35.214
37.099,35.224
37.076,35.235
37.054,35.247
37.034,35.261
37.013,35.275
36.99,35.288
36.964,35.3
36.936,35.307
36.904,35.308
36.869,35.303
36.833,35.29
36.794,35.27
36.753,35.242
36.709,35.207
36.663,35.165
36.613,35.117
36.561,35.066
36.508,35.013
36.452,34.957
36.396,34.899
36.338,34.84
36.277,34.779
36.214,34.718
36.149,34.657
36.084,34.597
36.02,34.54
35.957,34.486
35.898,34.435
35.844,34.387
35.796,34.341
35.753,34.296
35.717,34.25
35.689,34.204
35.667,34.154
35.651,34.102
35.64,34.046
35.633,33.986
35.626,33.925
35.622,33.863
35.618,33.802
35.616,33.742
35.614,33.685
35.611,33.631
35.607,33.58
35.603,33.532
35.598,33.488
35.593,33.448
35.589,33.412
35.584,33.382
35.578,33.356
35.569,33.337
35.558,33.325
35.542,33.321
35.52,33.324
35.492,33.336
35.457,33.36
35.416,33.396
35.369,33.45
35.317,33.525
35.261,33.625
35.201,33.753
35.139,33.91
35.076,34.096
35.012,34.31
34.946,34.549
34.881,34.81
34.818,35.088
34.755,35.376
34.692,35.669
34.626,35.961
34.558,36.248
34.487,36.523
34.415,36.784
34.343,37.027
34.272,37.249
34.203,37.447
34.135,37.62
34.07,37.767
34.008,37.887
33.95,37.98
33.895,38.048
33.845,38.092
33.798,38.117
33.755,38.124
33.715,38.121
33.679,38.11
33.647,38.091
33.619,38.067
33.596,38.038
33.576,38.004
33.562,37.967
33.551,37.924
33.544,37.878
33.54,37.828
33.537,37.774
33.535,37.719
33.535,37.662
33.535,37.606
33.534,37.55
33.53,37.497
33.524,37.445
33.514,37.395
33.5,37.345
33.484,37.295
33.466,37.245
33.447,37.196
33.428,37.147
33.408,37.099
33.388,37.052
33.368,37.005
33.348,36.958
33.326,36.911
33.304,36.865
33.282,36.817
33.26,36.768
33.241,36.718
33.222,36.665
33.205,36.61
33.191,36.554
33.184,36.497
33.187,36.439
33.202,36.38
33.232,36.318
33.281,36.255
33.352,36.19
33.447,36.122
33.569,36.052
33.72,35.981
33.9,35.91
34.106,35.84
34.338,35.772
34.591,35.707
34.859,35.645
35.14,35.589
35.427,35.537
35.715,35.492
35.999,35.454
36.274,35.423
36.533,35.4
36.773,35.385
36.99,35.378
37.183,35.38
37.35,35.388
37.49,35.401
37.604,35.419
37.691,35.438
37.753,35.456
37.792,35.472
37.81,35.485
37.81,35.495
37.796,35.499
37.77,35.497
37.737,35.489
37.699,35.473
37.659,35.449
37.617,35.418
37.575,35.379
37.534,35.334
37.495,35.285
37.458,35.231
37.421,35.175
37.385,35.118
37.347,35.06
37.308,35.003
37.268,34.945
37.228,34.887
37.188,34.828
37.15,34.768
37.113,34.707
37.079,34.647
37.047,34.586
37.016,34.526
36.988,34.465
36.961,34.404
36.935,34.345
36.909,34.288
36.881,34.236
36.85,34.188
36.816,34.142
36.779,34.096
36.738,34.05
36.694,34.002
36.647,33.951
36.598,33.899
36.545,33.847
36.489,33.794
36.431,33.74
36.37,33.686
36.307,33.631
36.244,33.577
36.178,33.523
36.11,33.471
36.039,33.421
35.967,33.374
35.895,33.329
35.825,33.287
35.759,33.248
35.698,33.212
35.643,33.178
35.596,33.145
35.558,33.113
35.53,33.081
35.512,33.051
35.504,33.025
35.505,33.006
35.513,32.996
35.527,33.001
35.544,33.025
35.562,33.073
35.581,33.15
35.6,33.26
35.618,33.404
35.632,33.582
35.644,33.791
35.651,34.03
35.654,34.295
35.654,34.582
35.653,34.885
35.65,35.198
35.645,35.515
35.638,35.828
35.626,36.131
35.61,36.418
35.59,36.683
35.564,36.925
35.532,37.142
35.494,37.333
35.45,37.497
35.399,37.635
35.342,37.745
35.28,37.831
35.212,37.892
35.142,37.933
35.069,37.955
34.994,37.964
34.918,37.961
34.84,37.95
34.761,37.93
34.682,37.903
34.604,37.87
34.527,37.834
34.451,37.794
34.377,37.753
34.304,37.712
34.235,37.671
34.17,37.632
34.108,37.596
34.05,37.561
33.994,37.529
33.941,37.498
33.891,37.468
33.843,37.44
33.798,37.414
33.754,37.39
33.711,37.367
33.668,37.346
33.625,37.326
33.582,37.307
33.541,37.288
33.502,37.269
33.466,37.248
33.435,37.224
33.408,37.196
33.387,37.166
33.371,37.131
33.362,37.09
33.357,37.043
33.358,36.989
33.361,36.928
33.365,36.858
33.368,36.781
33.369,36.697
33.368,36.608
33.364,36.516
33.357,36.422
33.347,36.328
33.335,36.235
33.32,36.142
33.302,36.052
33.281,35.965
33.259,35.884
33.235,35.811
33.209,35.748
33.182,35.696
33.152,35.653
33.121,35.621
33.09,35.599
33.059,35.585
33.03,35.578
33.004,35.576
32.981,35.578
32.965,35.583
32.958,35.589
32.963,35.596
32.985,35.603
33.027,35.611
33.094,35.618
33.189,35.623
33.316,35.626
33.478,35.626
33.675,35.625
33.906,35.621
34.168,35.616
34.455,35.609
34.763,35.6
35.084,35.586
35.411,35.568
35.739,35.544
36.062,35.514
36.372,35.478
36.666,35.436
36.937,35.387
37.181,35.332
37.397,35.274
37.583,35.213
37.739,35.151
37.865,35.09
37.967,35.03
38.046,34.97
38.101,34.911
38.133,34.853
38.142,34.795
38.128,34.738
38.097,34.681
38.052,34.624
37.995,34.565
37.928,34.507
37.854,34.448
37.777,34.388
37.697,34.328
37.617,34.269
37.539,34.209
37.462,34.148
37.39,34.087
37.322,34.025
37.258,33.965
37.199,33.907
37.144,33.852
37.096,33.8
37.053,33.752
37.015,33.708
36.982,33.668
36.951,33.631
36.921,33.596
36.893,33.562
36.867,33.528
36.842,33.493
36.817,33.456
36.791,33.419
36.763,33.381
36.732,33.343
36.699,33.303
36.661,33.264
36.62,33.222
36.574,33.179
36.523,33.133
36.468,33.086
36.407,33.039
36.343,32.992
36.276,32.947
36.206,32.908
36.133,32.877
36.059,32.859
35.983,32.858
35.908,32.877
35.835,32.919
35.764,32.988
35.698,33.086
35.637,33.215
35.581,33.377
35.531,33.572
35.488,33.799
35.452,34.056
35.423,34.338
35.402,34.637
35.389,34.947
35.382,35.26
35.382,35.571
35.387,35.871
35.396,36.156
35.408,36.42
35.422,36.661
35.436,36.877
35.451,37.068
35.465,37.233
35.476,37.373
35.485,37.488
35.489,37.58
35.489,37.651
35.486,37.702
35.479,37.737
35.469,37.757
35.456,37.767
35.439,37.769
35.417,37.764
35.391,37.753
35.36,37.735
35.324,37.713
35.282,37.686
35.235,37.654
35.181,37.619
35.122,37.581
35.055,37.54
34.983,37.496
34.907,37.449
34.828,37.399
34.747,37.345
34.665,37.289
34.582,37.233
34.499,37.178
34.415,37.126
34.333,37.077
34.251,37.033
34.171,36.993
34.092,36.957
34.013,36.924
33.935,36.894
33.859,36.865
33.785,36.837
33.716,36.809
33.652,36.779
33.592,36.748
33.538,36.714
33.489,36.677
33.447,36.638
33.41,36.595
33.377,36.547
33.349,36.495
33.323,36.438
33.3,36.378
33.278,36.316
33.257,36.254
33.237,36.191
33.218,36.129
33.2,36.067
33.183,36.004
33.169,35.941
33.156,35.878
33.144,35.816
33.132,35.756
33.121,35.701
33.111,35.65
33.1,35.603
33.089,35.56
33.076,35.521
33.062,35.486
33.046,35.456
33.029,35.43
33.012,35.409
32.995,35.393
32.976,35.382
32.957,35.376
32.936,35.375
32.915,35.378
32.895,35.384
32.877,35.393
32.863,35.403
32.856,35.412
32.859,35.42
32.876,35.426
32.911,35.43
32.969,35.434
33.055,35.436
33.173,35.436
33.328,35.431
33.52,35.42
33.75,35.401
34.013,35.375
34.308,35.34
34.628,35.299
34.967,35.251
35.315,35.197
35.667,35.136
36.012,35.071
36.344,35.001
36.656,34.928
36.943,34.852
37.199,34.775
37.421,34.698
37.608,34.621
37.761,34.546
37.881,34.477
37.97,34.412
38.032,34.352
38.069,34.297
38.085,34.246
38.084,34.198
38.07,34.152
38.045,34.107
38.011,34.063
37.97,34.02
37.924,33.977
37.875,33.934
37.824,33.889
37.771,33.843
37.718,33.797
37.664,33.749
37.609,33.699
37.555,33.649
37.503,33.597
37.452,33.546
37.403,33.496
37.354,33.45
37.305,33.408
37.255,33.37
37.205,33.339
37.155,33.312
37.107,33.288
37.058,33.268
37.01,33.251
36.961,33.234
36.913,33.217
36.868,33.2
36.826,33.179
36.786,33.157
36.748,33.131
36.713,33.103
36.678,33.074
36.642,33.041
36.606,33.006
36.566,32.969
36.522,32.933
36.473,32.899
36.417,32.873
36.355,32.858
36.287,32.861
36.215,32.888
36.14,32.944
36.063,33.035
35.986,33.164
35.91,33.333
35.838,33.54
35.771,33.781
35.71,34.052
35.658,34.346
35.613,34.657
35.576,34.978
35.546,35.301
35.522,35.621
35.504,35.929
35.49,36.22
35.481,36.488
35.474,36.73
35.47,36.942
35.468,37.125
35.47,37.279
35.473,37.404
35.479,37.502
35.486,37.574
35.494,37.623
35.503,37.652
35.511,37.662
35.519,37.657
35.525,37.64
35.528,37.614
35.528,37.581
35.524,37.543
35.514,37.504
35.5,37.463
35.481,37.422
35.458,37.38
35.431,37.339
35.398,37.297
35.36,37.256
35.317,37.214
35.268,37.172
35.216,37.131
35.159,37.09
35.098,37.05
35.032,37.011
34.961,36.973
34.887,36.936
34.811,36.901
34.735,36.867
34.656,36.835
34.577,36.805
34.496,36.777
34.417,36.752
34.34,36.727
34.268,36.701
34.201,36.672
34.139,36.641
34.084,36.606
34.034,36.566
33.988,36.521
33.946,36.471
33.907,36.415
33.868,36.352
33.83,36.284
33.792,36.211
33.753,36.134
33.71,36.055
33.662,35.975
33.61,35.895
33.554,35.816
33.498,35.739
33.441,35.666
33.385,35.597
33.332,35.533
33.284,35.475
33.241,35.425
33.205,35.381
33.176,35.343
33.153,35.311
33.136,35.285
33.122,35.265
33.111,35.25
33.102,35.24
33.096,35.234
33.091,35.232
33.085,35.231
33.078,35.233
33.069,35.236
33.057,35.241
33.043,35.248
33.024,35.255
33.001,35.263
32.975,35.271
32.946,35.277
32.916,35.282
32.887,35.283
32.862,35.28
32.842,35.272
32.831,35.261
32.834,35.247
32.854,35.229
32.894,35.209
32.959,35.186
33.053,35.162
33.178,35.135
33.338,35.104
33.534,35.07
33.764,35.032
34.026,34.991
34.315,34.946
34.628,34.897
34.958,34.846
35.298,34.791
35.638,34.733
35.972,34.672
36.295,34.607
36.6,34.54
36.884,34.47
37.143,34.4
37.373,34.329
37.574,34.258
37.743,34.189
37.881,34.123
37.989,34.061
38.068,34.003
38.121,33.949
38.152,33.898
38.162,33.849
38.153,33.801
38.129,33.754
38.094,33.708
38.05,33.665
38.002,33.624
37.951,33.587
37.899,33.552
37.848,33.52
37.799,33.492
37.752,33.465
37.706,33.44
37.662,33.414
37.617,33.387
37.574,33.36
37.531,33.33
37.489,33.299
37.447,33.266
37.404,33.231
37.362,33.196
37.321,33.16
37.282,33.124
37.246,33.088
37.213,33.052
37.182,33.015
37.155,32.979
37.13,32.943
37.107,32.909
37.083,32.878
37.058,32.854
37.031,32.84
37,32.838
36.966,32.852
36.927,32.885
36.883,32.942
36.836,33.024
36.785,33.135
36.733,33.276
36.678,33.447
36.62,33.647
36.561,33.875
36.501,34.127
36.439,34.399
36.376,34.685
36.311,34.98
36.245,35.276
36.177,35.567
36.11,35.846
36.043,36.109
35.978,36.35
35.916,36.569
35.858,36.765
35.805,36.936
35.757,37.082
35.716,37.205
35.679,37.303
35.65,37.377
35.627,37.431
35.611,37.466
35.602,37.484
35.598,37.489
35.598,37.481
35.6,37.464
35.605,37.438
35.612,37.404
35.62,37.364
35.629,37.317
35.637,37.267
35.644,37.212
35.65,37.155
35.652,37.096
35.651,37.037
35.645,36.98
35.635,36.926
35.621,36.875
35.601,36.827
35.574,36.782
35.54,36.74
35.499,36.702
35.451,36.668
35.397,36.639
35.34,36.617
35.278,36.599
35.213,36.584
35.146,36.572
35.077,36.559
35.009,36.544
34.941,36.526
34.872,36.505
34.803,36.48
34.734,36.451
34.663,36.417
34.591,36.379
34.518,36.336
34.443,36.292
34.369,36.245
34.296,36.197
34.224,36.144
34.153,36.084
34.082,36.017
34.014,35.943
33.948,35.865
33.887,35.785
33.83,35.704
33.776,35.624
33.726,35.548
33.677,35.475
33.632,35.407
33.589,35.344
33.55,35.286
33.514,35.237
33.48,35.196
33.447,35.164
33.418,35.141
33.391,35.126
33.367,35.117
33.346,35.115
33.327,35.119
33.31,35.128
33.296,35.141
33.283,35.157
33.271,35.177
33.259,35.198
33.248,35.22
33.237,35.24
33.226,35.259
33.215,35.274
33.204,35.286
33.192,35.294
33.179,35.296
33.164,35.295
33.147,35.289
33.13,35.278
33.111,35.263
33.091,35.243
33.072,35.219
33.053,35.187
33.036,35.149
33.023,35.104
33.016,35.052
33.016,34.997
33.028,34.939
33.055,34.879
33.104,34.82
33.18,34.76
33.287,34.7
33.429,34.641
33.607,34.583
33.822,34.525
34.072,34.468
34.355,34.409
34.664,34.349
34.992,34.288
35.331,34.226
35.674,34.164
36.013,34.102
36.34,34.041
36.65,33.979
36.936,33.916
37.196,33.853
37.426,33.79
37.625,33.728
37.791,33.668
37.926,33.612
38.033,33.56
38.113,33.512
38.17,33.47
38.204,33.433
38.22,33.401
38.219,33.374
38.204,33.35
38.177,33.33
38.139,33.311
38.094,33.294
38.044,33.278
37.99,33.262
37.935,33.247
37.88,33.232
37.824,33.218
37.771,33.204
37.72,33.189
37.671,33.173
37.625,33.156
37.581,33.136
37.54,33.113
37.5,33.087
37.461,33.058
37.424,33.027
37.387,32.996
37.352,32.966
37.316,32.94
37.281,32.92
37.245,32.906
37.209,32.901
37.173,32.908
37.138,32.933
37.104,32.979
37.071,33.05
37.039,33.151
37.006,33.286
36.972,33.455
36.936,33.66
36.897,33.898
36.853,34.164
36.805,34.452
36.751,34.756
36.691,35.066
36.625,35.377
36.555,35.68
36.479,35.972
36.399,36.246
36.316,36.5
36.231,36.73
36.148,36.935
36.073,37.111
36.01,37.26
35.961,37.38
35.924,37.474
35.897,37.543
35.874,37.591
35.853,37.62
35.831,37.631
35.81,37.628
35.788,37.613
35.766,37.587
35.743,37.553
35.72,37.512
35.698,37.467
35.677,37.417
35.657,37.365
35.637,37.31
35.62,37.255
35.604,37.199
35.589,37.143
35.576,37.089
35.564,37.037
35.552,36.989
35.541,36.945
35.529,36.904
35.517,36.866
35.502,36.83
35.486,36.795
35.469,36.759
35.449,36.723
35.426,36.684
35.399,36.643
35.368,36.599
35.33,36.555
35.286,36.51
35.236,36.465
35.179,36.42
35.117,36.374
35.048,36.328
34.976,36.279
34.9,36.229
34.823,36.176
34.746,36.121
34.669,36.066
34.594,36.009
34.52,35.95
34.447,35.89
34.378,35.829
34.31,35.769
34.245,35.708
34.181,35.647
34.117,35.585
34.053,35.524
33.989,35.463
33.926,35.404
33.864,35.347
33.803,35.293
33.746,35.244
33.693,35.2
33.644,35.16
33.602,35.123
33.565,35.091
33.533,35.064
33.506,35.042
33.483,35.025
33.463,35.013
33.445,35.008
33.427,35.008
33.41,35.014
33.392,35.025
33.375,35.04
33.358,35.058
33.34,35.078
33.321,35.101
33.302,35.124
33.282,35.147
33.263,35.166
33.244,35.179
33.227,35.184
33.21,35.183
33.193,35.174
33.175,35.158
33.156,35.136
33.136,35.107
33.113,35.072
33.088,35.034
33.061,34.993
33.031,34.949
32.999,34.904
32.964,34.857
32.929,34.807
32.893,34.754
32.858,34.699
32.825,34.641
32.797,34.582
32.775,34.522
32.764,34.463
32.765,34.405
32.785,34.349
32.828,34.295
32.899,34.242
33.004,34.19
33.144,34.138
33.324,34.084
33.543,34.028
33.8,33.972
34.092,33.916
34.412,33.861
34.754,33.807
35.108,33.754
35.467,33.704
35.823,33.655
36.168,33.608
36.493,33.561
36.795,33.515
37.069,33.468
37.311,33.42
37.519,33.371
37.693,33.322
37.833,33.273
37.942,33.226
38.022,33.181
38.075,33.138
38.106,33.097
38.119,33.056
38.117,33.015
38.1,32.976
38.072,32.94
38.035,32.907
37.992,32.882
37.943,32.866
37.892,32.862
37.837,32.877
37.781,32.914
37.723,32.977
37.665,33.069
37.609,33.192
37.556,33.345
37.506,33.529
37.459,33.743
37.416,33.983
37.375,34.245
37.336,34.523
37.297,34.812
37.26,35.105
37.223,35.395
37.187,35.675
37.152,35.94
37.118,36.185
37.085,36.408
37.054,36.605
37.024,36.776
36.995,36.918
36.966,37.034
36.937,37.124
36.905,37.19
36.87,37.235
36.829,37.261
36.782,37.27
36.728,37.265
36.668,37.249
36.601,37.225
36.528,37.194
36.448,37.16
36.362,37.125
36.269,37.087
36.173,37.048
36.077,37.005
35.981,36.957
35.89,36.906
35.804,36.855
35.727,36.803
35.66,36.75
35.602,36.697
35.556,36.642
35.519,36.587
35.491,36.53
35.472,36.473
35.459,36.415
35.452,36.359
35.449,36.304
35.45,36.251
35.455,36.202
35.462,36.156
35.473,36.113
35.485,36.075
35.497,36.039
35.51,36.005
35.522,35.971
35.535,35.935
35.546,35.898
35.556,35.858
35.562,35.814
35.565,35.766
35.564,35.715
35.559,35.658
35.547,35.596
35.53,35.529
35.506,35.457
35.476,35.381
35.441,35.302
35.4,35.223
35.355,35.143
35.306,35.066
35.254,34.991
35.199,34.921
35.141,34.857
35.08,34.799
35.014,34.748
34.944,34.704
34.871,34.668
34.793,34.639
34.712,34.617
34.628,34.603
34.543,34.596
34.457,34.597
34.371,34.604
34.286,34.614
34.202,34.627
34.122,34.642
34.044,34.659
33.971,34.677
33.902,34.696
33.836,34.716
33.774,34.735
33.715,34.754
33.66,34.771
33.611,34.786
33.568,34.795
33.53,34.8
33.496,34.799
33.465,34.791
33.436,34.777
33.41,34.757
33.388,34.731
33.369,34.701
33.351,34.666
33.335,34.627
33.318,34.584
33.3,34.536
33.281,34.484
33.26,34.428
33.238,34.371
33.214,34.313
33.188,34.255
33.161,34.197
33.133,34.139
33.103,34.082
33.073,34.026
33.044,33.969
33.018,33.912
32.994,33.855
32.969,33.796
32.94,33.736
32.905,33.675
32.865,33.616
32.823,33.557
32.783,33.5
32.75,33.445
32.727,33.39
32.722,33.334
32.74,33.278
32.787,33.222
32.868,33.165
32.988,33.108
33.149,33.052
33.349,32.997
33.589,32.945
33.864,32.898
34.17,32.855
34.499,32.817
34.845,32.783
35.2,32.751
35.555,32.722
35.903,32.694
36.238,32.67
36.554,32.651
36.845,32.641
37.108,32.644
37.339,32.664
37.535,32.706
37.698,32.776
37.827,32.878
37.924,33.015
37.992,33.188
38.033,33.395
38.048,33.635
38.042,33.905
38.019,34.199
37.983,34.511
37.938,34.835
37.885,35.163
37.827,35.487
37.767,35.8
37.705,36.096
37.644,36.37
37.585,36.619
37.528,36.842
37.474,37.035
37.425,37.198
37.378,37.331
37.335,37.433
37.294,37.505
37.255,37.55
37.217,37.571
37.181,37.57
37.146,37.551
37.114,37.519
37.084,37.474
37.054,37.42
37.024,37.359
36.994,37.293
36.963,37.225
36.931,37.156
36.899,37.088
36.866,37.023
36.831,36.962
36.794,36.907
36.753,36.857
36.708,36.814
36.658,36.775
36.604,36.742
36.544,36.711
36.478,36.683
36.406,36.657
36.328,36.631
36.246,36.605
36.161,36.58
36.074,36.554
35.986,36.525
35.899,36.494
35.814,36.458
35.734,36.418
35.659,36.373
35.591,36.326
35.529,36.277
35.473,36.225
35.425,36.172
35.385,36.116
35.353,36.057
35.329,35.996
35.315,35.931
35.31,35.864
35.313,35.794
35.322,35.721
35.337,35.645
35.356,35.568
35.378,35.49
35.403,35.413
35.427,35.336
35.45,35.261
35.471,35.188
35.488,35.118
35.503,35.051
35.515,34.987
35.523,34.927
35.526,34.873
35.526,34.827
35.521,34.789
35.511,34.759
35.495,34.738
35.473,34.724
35.444,34.718
35.408,34.718
35.366,34.725
35.318,34.738
35.265,34.757
35.207,34.781
35.144,34.808
35.075,34.838
35.003,34.868
34.928,34.898
34.852,34.925
34.776,34.949
34.701,34.965
34.626,34.975
34.554,34.976
34.482,34.97
34.412,34.957
34.343,34.937
34.277,34.909
34.212,34.875
34.15,34.835
34.088,34.788
34.026,34.737
33.964,34.682
33.904,34.626
33.845,34.569
33.79,34.512
33.737,34.457
33.687,34.403
33.639,34.351
33.594,34.3
33.553,34.248
33.515,34.196
33.481,34.141
33.45,34.082
33.422,34.021
33.395,33.957
33.369,33.892
33.343,33.825
33.318,33.756
33.292,33.685
33.267,33.613
33.24,33.542
33.213,33.471
33.185,33.402
33.156,33.337
33.127,33.275
33.098,33.218
33.068,33.166
33.035,33.12
32.999,33.079
32.959,33.044
32.915,33.012
32.869,32.983
32.819,32.954
32.768,32.925
32.715,32.896
32.661,32.865
32.61,32.834
32.563,32.804
32.523,32.776
32.493,32.753
32.476,32.738
32.476,32.735
32.499,32.75
32.549,32.787
32.63,32.852
32.744,32.948
32.896,33.078
33.088,33.246
33.318,33.453
33.585,33.698
33.886,33.976
34.216,34.283
34.567,34.61
34.933,34.949
35.305,35.291
35.675,35.628
36.037,35.952
36.382,36.258
36.707,36.541
37.007,36.796
37.276,37.02
37.511,37.209
37.71,37.364
37.874,37.484
38.003,37.571
38.1,37.629
38.167,37.662
38.208,37.673
38.227,37.667
38.228,37.647
38.214,37.617
38.191,37.579
38.16,37.537
38.124,37.494
38.084,37.452
38.041,37.41
37.997,37.369
37.949,37.329
37.9,37.289
37.85,37.249
37.799,37.209
37.747,37.167
37.696,37.124
37.646,37.08
37.599,37.035
37.553,36.99
37.51,36.943
37.469,36.895
37.43,36.847
37.395,36.799
37.362,36.749
37.332,36.7
37.303,36.65
37.273,36.6
37.243,36.551
37.211,36.504
37.179,36.459
37.148,36.417
37.121,36.375
37.101,36.334
37.085,36.292
37.072,36.248
37.058,36.2
37.038,36.148
37.01,36.093
36.97,36.033
36.916,35.968
36.845,35.898
36.759,35.823
36.656,35.742
36.539,35.655
36.41,35.564
36.272,35.471
36.131,35.376
35.994,35.283
35.864,35.194
35.747,35.111
35.644,35.037
35.558,34.974
35.488,34.922
35.437,34.882
35.403,34.855
35.385,34.84
35.38,34.837
35.383,34.845
35.391,34.864
35.403,34.891
35.417,34.923
35.429,34.959
35.44,34.995
35.449,35.028
35.453,35.056
35.455,35.078
35.454,35.095
35.45,35.105
35.444,35.109
35.436,35.108
35.426,35.101
35.415,35.089
35.401,35.073
35.383,35.052
35.361,35.025
35.335,34.995
35.302,34.96
35.263,34.921
35.218,34.879
35.165,34.835
35.106,34.79
35.041,34.743
34.972,34.694
34.899,34.643
34.823,34.589
34.746,34.532
34.667,34.47
34.587,34.404
34.507,34.336
34.425,34.266
34.342,34.194
34.259,34.122
34.176,34.05
34.095,33.981
34.016,33.914
33.939,33.85
33.864,33.788
33.792,33.729
33.722,33.672
33.656,33.617
33.594,33.566
33.536,33.518
33.481,33.473
33.429,33.43
33.378,33.389
33.329,33.348
33.282,33.308
33.236,33.267
33.192,33.227
33.149,33.185
33.11,33.142
33.073,33.096
33.041,33.048
33.013,32.997
32.988,32.946
32.969,32.896
32.953,32.848
32.941,32.801
32.932,32.757
32.923,32.717
32.914,32.682
32.903,32.655
32.89,32.639
32.875,32.639
32.858,32.657
32.837,32.701
32.814,32.774
32.787,32.882
32.759,33.027
32.728,33.211
32.698,33.432
32.67,33.688
32.645,33.973
32.626,34.283
32.615,34.611
32.615,34.953
32.63,35.3
32.662,35.646
32.716,35.982
32.797,36.303
32.911,36.603
33.06,36.878
33.246,37.125
33.469,37.344
33.727,37.532
34.018,37.689
34.337,37.817
34.677,37.915
35.031,37.986
35.391,38.031
35.748,38.053
36.095,38.055
36.424,38.041
36.73,38.013
37.009,37.975
37.259,37.928
37.476,37.875
37.659,37.819
37.809,37.76
37.927,37.7
38.015,37.639
38.074,37.579
38.109,37.521
38.123,37.464
38.119,37.41
38.1,37.358
38.07,37.309
38.03,37.265
37.985,37.225
37.934,37.189
37.88,37.155
37.824,37.124
37.765,37.096
37.705,37.071
37.642,37.046
37.579,37.022
37.516,36.997
37.455,36.969
37.394,36.937
37.336,36.901
37.282,36.861
37.231,36.816
37.184,36.767
37.14,36.714
37.099,36.657
37.059,36.594
37.021,36.524
36.986,36.449
36.95,36.368
36.915,36.282
36.878,36.193
36.84,36.102
36.802,36.009
36.761,35.917
36.716,35.827
36.667,35.738
36.614,35.653
36.556,35.571
36.492,35.492
36.421,35.417
36.344,35.347
36.261,35.284
36.173,35.227
36.081,35.18
35.987,35.143
35.892,35.115
35.797,35.098
35.706,35.092
35.617,35.095
35.534,35.105
35.458,35.123
35.39,35.146
35.332,35.173
35.283,35.201
35.243,35.231
35.211,35.259
35.188,35.284
35.174,35.305
35.169,35.32
35.171,35.328
35.179,35.329
35.191,35.322
35.207,35.308
35.226,35.286
35.248,35.257
35.273,35.221
35.299,35.18
35.324,35.133
35.348,35.08
35.369,35.022
35.387,34.961
35.4,34.897
35.408,34.833
35.411,34.769
35.407,34.706
35.396,34.646
35.377,34.587
35.351,34.529
35.318,34.472
35.278,34.415
35.231,34.359
35.179,34.305
35.121,34.251
35.057,34.197
34.99,34.144
34.918,34.091
34.843,34.038
34.765,33.985
34.683,33.932
34.599,33.878
34.513,33.821
34.426,33.763
34.34,33.702
34.255,33.642
34.171,33.583
34.09,33.526
34.013,33.472
33.939,33.423
33.87,33.378
33.805,33.338
33.745,33.303
33.689,33.271
33.636,33.244
33.586,33.219
33.537,33.196
33.489,33.174
33.441,33.153
33.394,33.132
33.348,33.11
33.301,33.087
33.255,33.06
33.209,33.03
33.163,32.997
33.119,32.963
33.077,32.93
33.035,32.903
32.995,32.887
32.954,32.889
32.912,32.914
32.869,32.967
32.825,33.055
32.779,33.183
32.731,33.353
32.683,33.565
32.634,33.817
32.586,34.106
32.539,34.424
32.497,34.766
32.469,35.123
32.458,35.487
32.469,35.85
32.502,36.204
32.556,36.539
32.631,36.85
32.727,37.13
32.847,37.379
32.991,37.594
33.162,37.777
33.36,37.927
33.587,38.049
33.84,38.142
34.117,38.21
34.416,38.253
34.731,38.275
35.055,38.278
35.383,38.267
35.708,38.245
36.024,38.216
36.325,38.181
36.605,38.142
36.861,38.098
37.088,38.051
37.285,38.002
37.45,37.95
37.584,37.897
37.688,37.844
37.764,37.79
37.814,37.735
37.843,37.68
37.855,37.626
37.851,37.572
37.836,37.518
37.812,37.466
37.782,37.416
37.747,37.368
37.709,37.323
37.668,37.28
37.627,37.24
37.586,37.202
37.545,37.166
37.503,37.131
37.46,37.096
37.417,37.06
37.373,37.023
37.329,36.984
37.285,36.943
37.242,36.899
37.199,36.851
37.157,36.797
37.116,36.736
37.075,36.666
37.034,36.588
36.994,36.502
36.953,36.411
36.913,36.316
36.872,36.219
36.829,36.123
36.783,36.028
36.733,35.935
36.681,35.846
36.624,35.762
36.563,35.685
36.496,35.615
36.426,35.554
36.351,35.503
36.273,35.46
36.19,35.427
36.105,35.403
36.017,35.387
35.928,35.377
35.84,35.372
35.752,35.372
35.664,35.375
35.578,35.379
35.496,35.386
35.419,35.395
35.348,35.404
35.285,35.413
35.231,35.422
35.186,35.428
35.15,35.432
35.124,35.432
35.108,35.429
35.099,35.424
35.098,35.418
35.102,35.409
35.111,35.396
35.122,35.38
35.136,35.358
35.152,35.33
35.171,35.295
35.192,35.252
35.215,35.202
35.238,35.144
35.26,35.08
35.28,35.009
35.297,34.934
35.311,34.856
35.32,34.777
35.322,34.697
35.317,34.615
35.304,34.532
35.284,34.45
35.258,34.368
35.225,34.289
35.187,34.214
35.145,34.143
35.099,34.078
35.051,34.017
35.001,33.961
34.948,33.91
34.892,33.862
34.834,33.816
34.773,33.771
34.708,33.725
34.64,33.678
34.569,33.63
34.495,33.582
34.418,33.533
34.341,33.486
34.263,33.439
34.186,33.391
34.111,33.343
34.038,33.293
33.967,33.243
33.898,33.193
33.83,33.144
33.766,33.096
33.705,33.05
33.648,33.007
33.595,32.966
33.544,32.929
33.494,32.896
33.445,32.867
33.397,32.844
33.35,32.826
33.304,32.815
33.258,32.815
33.213,32.831
33.168,32.866
33.123,32.927
33.08,33.016
33.038,33.139
32.997,33.298
32.957,33.493
32.918,33.723
32.88,33.987
32.844,34.28
32.813,34.598
32.788,34.935
32.772,35.283
32.769,35.634
32.783,35.981
32.819,36.316
32.883,36.633
32.98,36.928
33.113,37.197
33.286,37.436
33.498,37.645
33.748,37.821
34.032,37.965
34.345,38.078
34.678,38.161
35.027,38.218
35.381,38.25
35.733,38.261
36.073,38.254
36.396,38.232
36.696,38.2
36.97,38.158
37.214,38.111
37.427,38.06
37.608,38.009
37.758,37.957
37.879,37.907
37.972,37.859
38.04,37.812
38.085,37.767
38.109,37.723
38.117,37.68
38.11,37.639
38.091,37.599
38.061,37.559
38.021,37.519
37.972,37.478
37.917,37.436
37.856,37.393
37.794,37.348
37.732,37.302
37.672,37.252
37.613,37.2
37.558,37.146
37.506,37.089
37.459,37.032
37.416,36.973
37.376,36.915
37.338,36.856
37.301,36.796
37.263,36.733
37.226,36.668
37.188,36.598
37.148,36.525
37.107,36.449
37.066,36.372
37.025,36.294
36.983,36.215
36.941,36.135
36.896,36.053
36.848,35.969
36.797,35.885
36.74,35.803
36.678,35.723
36.609,35.646
36.533,35.57
36.45,35.497
36.359,35.428
36.262,35.364
36.157,35.306
36.048,35.255
35.936,35.212
35.824,35.18
35.714,35.158
35.606,35.146
35.501,35.144
35.401,35.149
35.308,35.161
35.224,35.179
35.148,35.201
35.082,35.226
35.028,35.252
34.985,35.277
34.954,35.3
34.933,35.32
34.922,35.335
34.919,35.344
34.925,35.347
34.94,35.342
34.961,35.328
34.987,35.305
35.018,35.273
35.049,35.235
35.08,35.192
35.109,35.145
35.136,35.096
35.159,35.044
35.178,34.989
35.19,34.931
35.195,34.87
35.193,34.808
35.184,34.746
35.168,34.683
35.147,34.62
35.12,34.555
35.087,34.489
35.048,34.421
35.004,34.351
34.958,34.28
34.908,34.207
34.858,34.134
34.805,34.059
34.749,33.985
34.692,33.913
34.632,33.843
34.57,33.778
34.504,33.716
34.436,33.659
34.366,33.606
34.295,33.557
34.222,33.512
34.148,33.472
34.073,33.435
33.999,33.403
33.926,33.374
33.855,33.345
33.785,33.317
33.717,33.288
33.65,33.258
33.585,33.226
33.522,33.191
33.461,33.151
33.403,33.107
33.347,33.06
33.293,33.011
33.242,32.961
33.193,32.912
33.148,32.865
33.104,32.821
33.062,32.781
33.02,32.745
32.979,32.716
32.939,32.694
32.9,32.683
32.861,32.685
32.822,32.704
32.782,32.744
32.743,32.809
32.708,32.903
32.68,33.03
32.661,33.193
32.654,33.393
32.665,33.629
32.697,33.898
32.755,34.197
32.843,34.52
32.965,34.861
33.124,35.213
33.322,35.568
33.559,35.917
33.831,36.254
34.134,36.574
34.461,36.872
34.807,37.146
35.163,37.393
35.521,37.614
35.875,37.807
36.216,37.972
36.54,38.109
36.84,38.218
37.114,38.301
37.357,38.36
37.566,38.398
37.742,38.418
37.884,38.424
37.994,38.417
38.071,38.4
38.119,38.373
38.14,38.339
38.139,38.298
38.118,38.25
38.083,38.199
38.036,38.144
37.98,38.088
37.921,38.032
37.859,37.977
37.799,37.923
37.74,37.87
37.683,37.819
37.628,37.769
37.575,37.721
37.524,37.675
37.475,37.63
37.428,37.587
37.383,37.546
37.339,37.506
37.294,37.466
37.249,37.424
37.203,37.381
37.157,37.336
37.11,37.289
37.063,37.237
37.015,37.182
36.966,37.122
36.916,37.056
36.866,36.985
36.815,36.906
36.762,36.821
36.707,36.73
36.65,36.635
36.591,36.536
36.528,36.435
36.462,36.335
36.39,36.236
36.312,36.141
36.229,36.049
36.141,35.962
36.048,35.878
35.952,35.799
35.854,35.725
35.755,35.659
35.654,35.6
35.555,35.55
35.458,35.51
35.366,35.477
35.281,35.45
35.203,35.427
35.131,35.409
35.068,35.395
35.013,35.385
34.968,35.379
34.934,35.377
34.909,35.379
34.894,35.383
34.887,35.389
34.889,35.396
34.897,35.404
34.91,35.41
34.928,35.417
34.949,35.422
34.97,35.425
34.991,35.427
35.011,35.427
35.029,35.424
35.044,35.419
35.056,35.408
35.062,35.392
35.063,35.37
35.06,35.341
35.051,35.304
35.037,35.26
35.018,35.211
34.996,35.157
34.971,35.1
34.941,35.041
34.907,34.978
34.868,34.912
34.825,34.844
34.778,34.774
34.727,34.702
34.67,34.63
34.609,34.557
34.546,34.485
34.48,34.414
34.413,34.345
34.346,34.277
34.277,34.208
34.207,34.137
34.135,34.064
34.062,33.989
33.989,33.913
33.917,33.836
33.844,33.762
33.771,33.691
33.698,33.626
33.626,33.566
33.559,33.512
33.497,33.464
33.441,33.422
33.392,33.385
33.352,33.354
33.32,33.326
33.294,33.301
33.273,33.277
33.252,33.254
33.229,33.231
33.2,33.207
33.165,33.182
33.124,33.154
33.077,33.121
33.027,33.083
32.973,33.04
32.919,32.992
32.865,32.942
32.812,32.891
32.762,32.841
32.715,32.798
32.673,32.765
32.639,32.748
32.614,32.753
32.6,32.785
32.599,32.849
32.615,32.949
32.652,33.089
32.716,33.271
32.81,33.493
32.939,33.756
33.106,34.056
33.311,34.385
33.554,34.737
33.831,35.102
34.14,35.471
34.474,35.835
34.825,36.184
35.187,36.515
35.55,36.82
35.908,37.097
36.252,37.342
36.576,37.553
36.874,37.731
37.142,37.874
37.378,37.987
37.578,38.07
37.742,38.128
37.872,38.164
37.97,38.183
38.037,38.187
38.077,38.179
38.094,38.161
38.092,38.136
38.077,38.106
38.048,38.073
38.01,38.038
37.963,38.002
37.909,37.966
37.85,37.93
37.787,37.892
37.72,37.851
37.651,37.808
37.58,37.762
37.508,37.715
37.435,37.667
37.364,37.62
37.294,37.572
37.227,37.525
37.164,37.478
37.105,37.431
37.052,37.384
37.003,37.337
36.959,37.288
36.919,37.24
36.882,37.192
36.847,37.143
36.813,37.094
36.781,37.043
36.748,36.989
36.714,36.931
36.678,36.869
36.639,36.799
36.596,36.723
36.549,36.639
36.5,36.547
36.448,36.447
36.394,36.34
36.337,36.229
36.276,36.115
36.212,36
36.144,35.888
36.071,35.779
35.993,35.675
35.909,35.579
35.821,35.492
35.731,35.415
35.639,35.348
35.547,35.291
35.455,35.244
35.368,35.205
35.286,35.174
35.212,35.151
35.146,35.137
35.09,35.132
35.044,35.135
35.008,35.144
34.982,35.157
34.964,35.175
34.954,35.194
34.951,35.214
34.952,35.233
34.956,35.25
34.962,35.265
34.969,35.276
34.977,35.284
34.986,35.288
34.995,35.289
35.005,35.286
35.015,35.279
35.024,35.265
35.032,35.244
35.038,35.217
35.042,35.184
35.042,35.147
35.036,35.107
35.025,35.065
35.006,35.02
34.979,34.973
34.945,34.924
34.905,34.872
34.858,34.816
34.807,34.758
34.752,34.696
34.694,34.631
34.632,34.564
34.567,34.494
34.498,34.421
34.427,34.345
34.354,34.267
34.28,34.185
34.204,34.101
34.126,34.015
34.046,33.927
33.964,33.839
33.883,33.753
33.802,33.671
33.723,33.594
33.647,33.521
33.574,33.454
33.505,33.39
33.441,33.329
33.383,33.273
33.331,33.22
33.284,33.17
33.243,33.123
33.207,33.08
33.176,33.04
33.15,33.002
33.125,32.966
33.103,32.932
33.081,32.899
33.061,32.867
33.042,32.833
33.023,32.798
33.004,32.761
32.984,32.722
32.963,32.683
32.941,32.645
32.918,32.61
32.892,32.581
32.864,32.558
32.833,32.545
32.801,32.546
32.767,32.565
32.734,32.609
32.704,32.682
32.678,32.792
32.66,32.941
32.656,33.132
32.67,33.364
32.709,33.635
32.777,33.941
32.88,34.274
33.021,34.629
33.201,34.996
33.42,35.368
33.674,35.736
33.961,36.094
34.274,36.435
34.609,36.755
34.955,37.049
35.307,37.313
35.657,37.545
35.998,37.743
36.324,37.908
36.63,38.041
36.911,38.143
37.162,38.218
37.383,38.267
37.57,38.293
37.725,38.297
37.846,38.283
37.936,38.252
37.997,38.208
38.031,38.154
38.043,38.094
38.034,38.031
38.009,37.966
37.972,37.901
37.924,37.838
37.87,37.779
37.812,37.722
37.751,37.67
37.691,37.621
37.633,37.577
37.577,37.537
37.523,37.499
37.471,37.465
37.42,37.432
37.371,37.4
37.324,37.369
37.279,37.339
37.236,37.308
37.193,37.276
37.152,37.243
37.112,37.208
37.073,37.169
37.038,37.126
37.006,37.08
36.979,37.029
36.955,36.975
36.931,36.916
36.906,36.852
36.878,36.783
36.846,36.708
36.808,36.627
36.764,36.541
36.711,36.449
36.651,36.351
36.584,36.249
36.511,36.143
36.434,36.034
36.351,35.926
36.265,35.819
36.177,35.716
36.089,35.618
36,35.526
35.911,35.44
35.825,35.361
35.743,35.289
35.664,35.226
35.59,35.172
35.52,35.128
35.453,35.096
35.391,35.075
35.334,35.065
35.28,35.066
35.232,35.075
35.189,35.092
35.152,35.115
35.122,35.141
35.099,35.169
35.084,35.198
35.075,35.224
35.071,35.248
35.071,35.269
35.075,35.285
35.08,35.296
35.087,35.3
35.093,35.295
35.098,35.282
35.102,35.26
35.106,35.228
35.107,35.189
35.107,35.143
35.103,35.093
35.097,35.037
35.086,34.98
35.071,34.926
35.052,34.878
35.028,34.837
34.998,34.8
34.963,34.764
34.921,34.726
34.874,34.686
34.821,34.641
34.761,34.589
34.695,34.529
34.625,34.464
34.552,34.391
34.476,34.311
34.398,34.224
34.319,34.133
34.241,34.037
34.165,33.94
34.092,33.844
34.022,33.75
33.954,33.659
33.889,33.571
33.826,33.487
33.765,33.406
33.704,33.329
33.645,33.257
33.587,33.19
33.53,33.127
33.473,33.07
33.417,33.018
33.362,32.971
33.308,32.929
33.255,32.892
33.204,32.86
33.157,32.83
33.113,32.801
33.072,32.772
33.034,32.74
32.999,32.705
32.966,32.666
32.937,32.625
32.911,32.582
32.886,32.54
32.862,32.501
32.839,32.468
32.816,32.445
32.794,32.438
32.773,32.45
32.753,32.488
32.731,32.556
32.708,32.659
32.683,32.803
32.656,32.99
32.627,33.22
32.598,33.492
32.57,33.801
32.545,34.142
32.526,34.506
32.519,34.884
32.528,35.266
32.56,35.644
32.619,36.009
32.713,36.354
32.844,36.672
33.017,36.959
33.23,37.212
33.483,37.43
33.771,37.613
34.09,37.762
34.431,37.878
34.788,37.966
35.152,38.029
35.513,38.072
35.865,38.098
36.201,38.111
36.514,38.113
36.8,38.108
37.056,38.095
37.279,38.077
37.469,38.055
37.625,38.03
37.747,38.004
37.837,37.977
37.897,37.949
37.93,37.921
37.938,37.891
37.926,37.858
37.896,37.823
37.853,37.785
37.801,37.745
37.743,37.704
37.68,37.662
37.617,37.62
37.554,37.579
37.493,37.539
37.435,37.499
37.38,37.46
37.328,37.421
37.279,37.384
37.231,37.35
37.186,37.317
37.143,37.286
37.102,37.254
37.064,37.22
37.027,37.18
36.992,37.135
36.958,37.084
36.924,37.026
36.891,36.962
36.86,36.891
36.83,36.813
36.802,36.729
36.775,36.637
36.75,36.539
36.726,36.436
36.701,36.33
36.674,36.222
36.644,36.115
36.609,36.012
36.569,35.913
36.524,35.82
36.471,35.734
36.41,35.657
36.343,35.587
36.268,35.525
36.189,35.471
36.104,35.423
36.017,35.383
35.927,35.352
35.837,35.329
35.747,35.315
35.658,35.308
35.571,35.309
35.49,35.314
35.415,35.323
35.348,35.334
35.289,35.345
35.239,35.357
35.197,35.369
35.164,35.381
35.14,35.392
35.125,35.4
35.118,35.405
35.117,35.406
35.121,35.402
35.131,35.391
35.144,35.375
35.159,35.353
35.173,35.324
35.187,35.289
35.2,35.248
35.212,35.201
35.22,35.148
35.225,35.089
35.223,35.024
35.215,34.954
35.2,34.878
35.18,34.798
35.155,34.716
35.126,34.634
35.092,34.552
35.054,34.47
35.013,34.391
34.968,34.312
34.92,34.235
34.869,34.16
34.815,34.087
34.758,34.017
34.697,33.949
34.631,33.884
34.561,33.822
34.488,33.765
34.412,33.711
34.336,33.66
34.258,33.61
34.179,33.56
34.102,33.511
34.026,33.461
33.952,33.411
33.88,33.362
33.811,33.316
33.744,33.271
33.679,33.227
33.615,33.184
33.553,33.14
33.495,33.096
33.439,33.053
33.388,33.013
33.34,32.978
33.296,32.947
33.255,32.92
33.217,32.896
33.182,32.876
33.15,32.857
33.119,32.839
33.09,32.822
33.061,32.803
33.033,32.785
33.004,32.768
32.974,32.759
32.943,32.759
32.911,32.776
32.878,32.815
32.844,32.882
32.809,32.984
32.775,33.125
32.741,33.307
32.709,33.53
32.679,33.793
32.65,34.091
32.62,34.418
32.591,34.766
32.561,35.129
32.531,35.496
32.499,35.862
32.468,36.218
32.437,36.557
32.412,36.874
32.395,37.162
32.39,37.418
32.403,37.641
32.439,37.83
32.506,37.985
32.608,38.108
32.751,38.2
32.935,38.264
33.162,38.303
33.427,38.318
33.729,38.314
34.06,38.293
34.414,38.261
34.783,38.221
35.159,38.177
35.533,38.132
35.896,38.087
36.241,38.043
36.561,38.001
36.851,37.959
37.11,37.92
37.334,37.884
37.522,37.85
37.676,37.82
37.795,37.793
37.882,37.768
37.94,37.743
37.971,37.717
37.978,37.691
37.963,37.663
37.929,37.633
37.881,37.601
37.823,37.567
37.757,37.53
37.686,37.491
37.614,37.449
37.542,37.404
37.472,37.356
37.407,37.307
37.347,37.257
37.293,37.205
37.243,37.151
37.198,37.094
37.156,37.034
37.116,36.969
37.077,36.899
37.039,36.824
37.001,36.744
36.961,36.66
36.919,36.573
36.875,36.483
36.83,36.39
36.785,36.295
36.738,36.2
36.692,36.104
36.648,36.009
36.605,35.915
36.562,35.823
36.518,35.736
36.472,35.654
36.423,35.578
36.371,35.511
36.316,35.452
36.256,35.403
36.192,35.362
36.121,35.331
36.046,35.309
35.966,35.295
35.882,35.289
35.797,35.288
35.712,35.29
35.628,35.297
35.545,35.306
35.464,35.318
35.387,35.332
35.315,35.346
35.248,35.36
35.188,35.373
35.134,35.385
35.084,35.394
35.041,35.398
35.005,35.396
34.977,35.389
34.958,35.374
34.946,35.351
34.941,35.319
34.942,35.278
34.949,35.229
34.961,35.171
34.977,35.108
34.996,35.04
35.016,34.969
35.036,34.895
35.055,34.818
35.072,34.738
35.085,34.657
35.092,34.574
35.093,34.492
35.089,34.41
35.078,34.331
35.063,34.254
35.042,34.18
35.017,34.109
34.987,34.041
34.951,33.977
34.911,33.915
34.865,33.855
34.814,33.797
34.759,33.741
34.7,33.687
34.637,33.636
34.569,33.587
34.496,33.541
34.42,33.498
34.341,33.457
34.261,33.416
34.18,33.375
34.098,33.336
34.019,33.296
33.946,33.257
33.88,33.219
33.822,33.181
33.769,33.144
33.717,33.109
33.664,33.075
33.609,33.042
33.549,33.01
33.483,32.978
33.412,32.944
33.338,32.909
33.262,32.872
33.187,32.833
33.114,32.794
33.044,32.757
32.979,32.721
32.919,32.687
32.865,32.658
32.819,32.632
32.78,32.613
32.747,32.602
32.72,32.602
32.699,32.617
32.683,32.652
32.671,32.713
32.66,32.805
32.651,32.932
32.643,33.098
32.635,33.303
32.627,33.547
32.618,33.826
32.607,34.136
32.595,34.47
32.581,34.823
32.564,35.187
32.545,35.556
32.522,35.921
32.497,36.277
32.469,36.616
32.439,36.931
32.407,37.219
32.376,37.476
32.346,37.702
32.322,37.897
32.308,38.06
32.307,38.192
32.325,38.295
32.367,38.371
32.436,38.42
32.538,38.447
32.677,38.454
32.857,38.445
33.079,38.424
33.342,38.392
33.643,38.353
33.977,38.307
34.338,38.257
34.719,38.205
35.109,38.151
35.498,38.098
35.879,38.047
36.243,38
36.582,37.957
36.892,37.918
37.168,37.882
37.406,37.848
37.605,37.818
37.765,37.789
37.886,37.761
37.972,37.735
38.025,37.709
38.048,37.684
38.047,37.659
38.023,37.633
37.981,37.606
37.924,37.576
37.857,37.542
37.781,37.505
37.701,37.464
37.618,37.418
37.536,37.367
37.456,37.311
37.38,37.25
37.308,37.184
37.24,37.112
37.177,37.035
37.118,36.952
37.064,36.863
37.014,36.771
36.966,36.675
36.919,36.578
36.872,36.48
36.826,36.383
36.78,36.285
36.733,36.188
36.687,36.092
36.643,35.997
36.6,35.905
36.559,35.817
36.52,35.735
36.482,35.657
36.443,35.585
36.401,35.519
36.358,35.458
36.312,35.403
36.261,35.356
36.205,35.318
36.144,35.288
36.077,35.268
36.005,35.256
35.928,35.253
35.847,35.258
35.764,35.269
35.679,35.285
35.592,35.303
35.505,35.322
35.417,35.34
35.33,35.354
35.246,35.362
35.165,35.365
35.087,35.361
35.014,35.349
34.947,35.329
34.887,35.301
34.836,35.264
34.793,35.218
34.76,35.164
34.738,35.105
34.727,35.042
34.727,34.975
34.735,34.905
34.751,34.831
34.772,34.753
34.797,34.672
34.825,34.589
34.854,34.504
34.882,34.418
34.908,34.331
34.932,34.244
34.952,34.158
34.967,34.075
34.978,33.994
34.983,33.917
34.983,33.845
34.977,33.776
34.965,33.71
34.946,33.645
34.92,33.581
34.888,33.518
34.85,33.456
34.807,33.396
34.758,33.338
34.703,33.283
34.642,33.231
34.575,33.182
34.503,33.138
34.427,33.096
34.348,33.058
34.267,33.021
34.184,32.986
34.101,32.952
34.019,32.92
33.938,32.889
33.859,32.86
33.781,32.832
33.706,32.807
33.631,32.782
33.559,32.756
33.488,32.728
33.419,32.697
33.35,32.662
33.284,32.623
33.221,32.58
33.162,32.535
33.105,32.488
33.051,32.441
33.001,32.396
32.955,32.355
32.912,32.32
32.871,32.296
32.832,32.286
32.794,32.294
32.757,32.329
32.721,32.396
32.685,32.501
32.647,32.648
32.609,32.838
32.57,33.072
32.53,33.349
32.49,33.663
32.45,34.008
32.411,34.377
32.373,34.762
32.337,35.155
32.303,35.547
32.27,35.932
32.238,36.3
32.208,36.647
32.18,36.967
32.155,37.256
32.136,37.512
32.128,37.733
32.132,37.92
32.156,38.071
32.205,38.191
32.286,38.279
32.405,38.339
32.567,38.373
32.773,38.386
33.024,38.382
33.315,38.362
33.643,38.331
34.001,38.29
34.381,38.242
34.773,38.188
35.168,38.13
35.557,38.068
35.932,38.005
36.285,37.942
36.608,37.881
36.897,37.822
37.15,37.766
37.364,37.712
37.539,37.663
37.677,37.618
37.779,37.579
37.847,37.547
37.884,37.521
37.893,37.499
37.879,37.48
37.848,37.461
37.804,37.441
37.75,37.417
37.689,37.388
37.623,37.352
37.555,37.309
37.487,37.257
37.422,37.198
37.36,37.131
37.302,37.057
37.25,36.975
37.202,36.887
37.156,36.792
37.112,36.69
37.067,36.582
37.022,36.468
36.975,36.351
36.927,36.232
36.878,36.113
36.827,35.995
36.776,35.878
36.724,35.764
36.672,35.653
36.621,35.545
36.57,35.441
36.521,35.344
36.472,35.256
36.423,35.176
36.374,35.105
36.321,35.043
36.264,34.989
36.203,34.943
36.138,34.903
36.067,34.869
35.99,34.843
35.907,34.823
35.818,34.809
35.725,34.801
35.629,34.799
35.532,34.801
35.435,34.809
35.342,34.82
35.252,34.835
35.168,34.85
35.09,34.866
35.016,34.881
34.948,34.894
34.886,34.904
34.83,34.909
34.78,34.91
34.736,34.905
34.698,34.892
34.666,34.87
34.642,34.84
34.626,34.802
34.617,34.755
34.617,34.701
34.625,34.641
34.64,34.574
34.66,34.502
34.685,34.425
34.711,34.343
34.738,34.257
34.764,34.168
34.789,34.079
34.81,33.989
34.827,33.901
34.838,33.815
34.845,33.733
34.847,33.654
34.845,33.58
34.838,33.508
34.826,33.439
34.81,33.372
34.789,33.306
34.764,33.243
34.733,33.181
34.695,33.121
34.649,33.065
34.597,33.011
34.538,32.959
34.471,32.908
34.397,32.859
34.317,32.811
34.233,32.764
34.146,32.718
34.058,32.674
33.969,32.631
33.88,32.59
33.793,32.551
33.709,32.514
33.628,32.48
33.552,32.447
33.48,32.416
33.41,32.385
33.343,32.352
33.277,32.319
33.214,32.283
33.154,32.247
33.096,32.209
33.04,32.169
32.987,32.128
32.937,32.086
32.891,32.043
32.849,32.001
32.812,31.962
32.779,31.929
32.75,31.907
32.726,31.9
32.704,31.914
32.683,31.958
32.662,32.037
32.64,32.159
32.617,32.328
32.592,32.545
32.567,32.81
32.541,33.118
32.516,33.466
32.493,33.847
32.476,34.252
32.468,34.673
32.472,35.1
32.494,35.52
32.54,35.926
32.615,36.308
32.724,36.659
32.87,36.974
33.057,37.252
33.284,37.491
33.553,37.691
33.859,37.855
34.197,37.984
34.56,38.08
34.941,38.146
35.329,38.185
35.717,38.201
36.097,38.199
36.458,38.184
36.795,38.158
37.101,38.124
37.37,38.083
37.601,38.036
37.791,37.984
37.941,37.928
38.051,37.869
38.124,37.81
38.163,37.75
38.172,37.691
38.156,37.632
38.118,37.573
38.063,37.515
37.996,37.458
37.92,37.402
37.841,37.347
37.761,37.293
37.683,37.241
37.61,37.189
37.541,37.138
37.477,37.087
37.419,37.036
37.365,36.984
37.315,36.932
37.266,36.878
37.218,36.824
37.17,36.767
37.123,36.709
37.075,36.647
37.027,36.582
36.98,36.512
36.934,36.436
36.889,36.353
36.846,36.261
36.806,36.162
36.767,36.055
36.729,35.941
36.693,35.822
36.656,35.701
36.618,35.58
36.579,35.461
36.535,35.346
36.487,35.237
36.434,35.135
36.374,35.042
36.308,34.96
36.235,34.892
36.157,34.837
36.073,34.795
35.983,34.765
35.89,34.747
35.794,34.739
35.697,34.74
35.601,34.748
35.507,34.762
35.412,34.781
35.32,34.804
35.23,34.829
35.144,34.857
35.064,34.886
34.992,34.916
34.927,34.944
34.873,34.971
34.829,34.995
34.796,35.015
34.774,35.031
34.763,35.042
34.762,35.048
34.772,35.05
34.79,35.047
34.813,35.037
34.842,35.02
34.873,34.995
34.907,34.961
34.939,34.917
34.969,34.864
34.994,34.801
35.015,34.728
35.03,34.648
35.039,34.562
35.042,34.471
35.038,34.378
35.029,34.284
35.015,34.188
34.996,34.093
34.972,33.998
34.941,33.904
34.903,33.814
34.859,33.728
34.808,33.647
34.752,33.571
34.689,33.501
34.621,33.436
34.548,33.376
34.471,33.32
34.392,33.267
34.312,33.216
34.233,33.165
34.156,33.115
34.081,33.064
34.008,33.013
33.937,32.962
33.868,32.91
33.8,32.857
33.735,32.804
33.67,32.749
33.605,32.693
33.54,32.637
33.474,32.582
33.409,32.529
33.344,32.477
33.282,32.429
33.223,32.385
33.166,32.348
33.112,32.319
33.061,32.301
33.013,32.296
32.967,32.307
32.923,32.335
32.88,32.385
32.837,32.46
32.795,32.567
32.753,32.707
32.713,32.884
32.675,33.094
32.639,33.335
32.606,33.605
32.577,33.902
32.555,34.223
32.543,34.563
32.544,34.917
32.564,35.278
32.607,35.639
32.679,35.994
32.787,36.339
32.933,36.666
33.121,36.972
33.353,37.252
33.628,37.501
33.94,37.717
34.286,37.899
34.66,38.048
35.051,38.163
35.452,38.248
35.851,38.306
36.241,38.339
36.61,38.35
36.953,38.342
37.263,38.317
37.535,38.277
37.766,38.227
37.956,38.17
38.104,38.108
38.212,38.044
38.283,37.979
38.319,37.915
38.326,37.852
38.308,37.791
38.271,37.731
38.22,37.674
38.161,37.619
38.098,37.567
38.033,37.516
37.969,37.465
37.909,37.414
37.853,37.36
37.801,37.305
37.753,37.247
37.708,37.187
37.666,37.125
37.625,37.061
37.584,36.994
37.544,36.923
37.503,36.848
37.461,36.767
37.418,36.682
37.375,36.591
37.334,36.496
37.294,36.398
37.255,36.297
37.218,36.193
37.183,36.088
37.151,35.981
37.119,35.873
37.089,35.764
37.057,35.656
37.024,35.549
36.988,35.443
36.949,35.342
36.905,35.246
36.856,35.156
36.802,35.075
36.74,35.004
36.673,34.942
36.6,34.889
36.521,34.845
36.438,34.808
36.35,34.779
36.258,34.757
36.162,34.742
36.063,34.735
35.963,34.733
35.864,34.738
35.765,34.747
35.67,34.76
35.578,34.776
35.491,34.795
35.412,34.816
35.342,34.839
35.281,34.862
35.23,34.885
35.191,34.907
35.162,34.928
35.145,34.947
35.137,34.962
35.136,34.973
35.142,34.979
35.152,34.978
35.166,34.969
35.182,34.954
35.197,34.931
35.212,34.901
35.223,34.864
35.231,34.82
35.237,34.769
35.239,34.709
35.239,34.642
35.236,34.569
35.231,34.49
35.222,34.408
35.209,34.324
35.192,34.239
35.172,34.154
35.147,34.069
35.116,33.986
35.079,33.903
35.036,33.82
34.986,33.738
34.93,33.655
34.868,33.572
34.803,33.49
34.734,33.41
34.663,33.333
34.592,33.258
34.522,33.188
34.452,33.119
34.381,33.053
34.31,32.988
34.238,32.925
34.166,32.863
34.094,32.803
34.019,32.746
33.943,32.692
33.865,32.643
33.787,32.599
33.71,32.561
33.634,32.528
33.561,32.503
33.493,32.486
33.43,32.48
33.372,32.489
33.319,32.518
33.273,32.573
33.232,32.661
33.198,32.785
33.168,32.948
33.141,33.15
33.116,33.39
33.091,33.664
33.065,33.97
33.038,34.301
33.01,34.65
32.98,35.013
32.948,35.379
32.913,35.743
32.876,36.097
32.839,36.433
32.804,36.748
32.773,37.035
32.747,37.291
32.73,37.515
32.723,37.704
32.731,37.858
32.759,37.979
32.812,38.066
32.897,38.123
33.02,38.151
33.184,38.153
33.393,38.135
33.644,38.1
33.937,38.052
34.266,37.994
34.624,37.931
35.004,37.866
35.396,37.801
35.79,37.738
36.178,37.676
36.55,37.614
36.899,37.554
37.216,37.495
37.496,37.439
37.737,37.387
37.939,37.339
38.101,37.294
38.225,37.251
38.316,37.21
38.375,37.168
38.408,37.124
38.419,37.078
38.413,37.031
38.394,36.981
38.366,36.93
38.332,36.877
38.294,36.821
38.252,36.761
38.21,36.7
38.166,36.636
38.123,36.57
38.081,36.501
38.039,36.43
38,36.357
37.962,36.279
37.925,36.199
37.889,36.115
37.853,36.029
37.819,35.94
37.784,35.85
37.749,35.759
37.713,35.668
37.675,35.576
37.636,35.486
37.595,35.398
37.551,35.312
37.503,35.228
37.45,35.147
37.392,35.068
37.332,34.992
37.269,34.923
37.205,34.86
37.139,34.806
37.071,34.761
37.001,34.727
36.929,34.702
36.854,34.687
36.777,34.682
36.697,34.685
36.615,34.697
36.529,34.715
36.44,34.739
36.348,34.768
36.251,34.8
36.153,34.832
36.052,34.864
35.95,34.893
35.849,34.918
35.751,34.937
35.659,34.949
35.575,34.953
35.5,34.948
35.437,34.935
35.386,34.914
35.349,34.886
35.324,34.851
35.31,34.807
35.305,34.755
35.308,34.695
35.317,34.629
35.33,34.557
35.345,34.482
35.36,34.406
35.376,34.328
35.392,34.25
35.408,34.172
35.423,34.094
35.436,34.017
35.447,33.94
35.455,33.864
35.461,33.787
35.462,33.711
35.46,33.637
35.453,33.564
35.441,33.494
35.422,33.428
35.395,33.365
35.361,33.304
35.32,33.244
35.273,33.186
35.222,33.128
35.168,33.072
35.111,33.017
35.052,32.964
34.992,32.913
34.931,32.862
34.869,32.813
34.808,32.765
34.745,32.717
34.682,32.671
34.616,32.625
34.548,32.581
34.478,32.538
34.405,32.501
34.33,32.473
34.252,32.459
34.173,32.464
34.093,32.494
34.013,32.554
33.935,32.648
33.861,32.78
33.791,32.951
33.728,33.162
33.672,33.412
33.62,33.695
33.573,34.008
33.53,34.342
33.489,34.691
33.449,35.045
33.41,35.396
33.37,35.737
33.33,36.062
33.291,36.364
33.251,36.64
33.211,36.887
33.171,37.103
33.132,37.286
33.094,37.436
33.058,37.554
33.024,37.642
32.99,37.703
32.957,37.739
32.925,37.755
32.892,37.752
32.86,37.737
32.83,37.711
32.802,37.677
32.777,37.638
32.759,37.595
32.751,37.548
32.758,37.501
32.783,37.454
32.833,37.406
32.913,37.359
33.029,37.312
33.183,37.266
33.379,37.22
33.618,37.173
33.896,37.125
34.213,37.075
34.56,37.024
34.93,36.974
35.312,36.923
35.699,36.874
36.081,36.824
36.452,36.776
36.805,36.727
37.134,36.678
37.436,36.629
37.708,36.58
37.947,36.531
38.152,36.484
38.321,36.435
38.456,36.386
38.558,36.333
38.63,36.275
38.673,36.212
38.692,36.142
38.689,36.066
38.671,35.984
38.638,35.896
38.595,35.804
38.544,35.706
38.487,35.605
38.426,35.5
38.364,35.395
38.3,35.29
38.237,35.186
38.174,35.08
38.111,34.973
38.049,34.867
37.986,34.766
37.923,34.673
37.858,34.593
37.794,34.528
37.729,34.48
37.663,34.45
37.599,34.438
37.537,34.443
37.477,34.465
37.419,34.5
37.364,34.547
37.313,34.603
37.265,34.662
37.221,34.723
37.181,34.781
37.144,34.834
37.109,34.88
37.074,34.917
37.036,34.945
36.994,34.961
36.947,34.966
36.895,34.958
36.838,34.938
36.775,34.906
36.705,34.864
36.63,34.815
36.55,34.758
36.465,34.696
36.378,34.631
36.29,34.565
36.203,34.501
36.117,34.438
36.033,34.378
35.954,34.319
35.88,34.262
35.812,34.205
35.751,34.148
35.698,34.092
35.653,34.035
35.616,33.98
35.587,33.926
35.567,33.873
35.554,33.821
35.55,33.769
35.553,33.715
35.562,33.66
35.577,33.603
35.597,33.546
35.621,33.489
35.647,33.432
35.673,33.376
35.696,33.32
35.714,33.265
35.727,33.212
35.734,33.16
35.734,33.108
35.727,33.056
35.713,33.003
35.694,32.95
35.668,32.897
35.636,32.845
35.599,32.794
35.557,32.746
35.513,32.699
35.464,32.654
35.412,32.611
35.355,32.569
35.295,32.531
35.231,32.498
35.163,32.473
35.093,32.46
35.019,32.465
34.943,32.493
34.865,32.551
34.785,32.643
34.705,32.773
34.624,32.941
34.543,33.146
34.465,33.387
34.388,33.658
34.313,33.956
34.239,34.271
34.166,34.598
34.095,34.928
34.026,35.256
33.96,35.573
33.896,35.875
33.835,36.157
33.776,36.415
33.72,36.646
33.666,36.851
33.616,37.028
33.57,37.178
33.528,37.301
33.489,37.4
33.453,37.474
33.418,37.526
33.384,37.559
33.352,37.576
33.319,37.578
33.286,37.569
33.252,37.552
33.217,37.527
33.181,37.496
33.143,37.461
33.104,37.423
33.066,37.383
33.03,37.341
32.995,37.299
32.964,37.255
32.938,37.211
32.921,37.165
32.915,37.117
32.924,37.067
32.953,37.015
33.006,36.961
33.086,36.905
33.2,36.849
33.351,36.793
33.541,36.738
33.77,36.684
34.038,36.632
34.341,36.583
34.674,36.537
35.031,36.493
35.403,36.448
35.782,36.403
36.159,36.356
36.523,36.306
36.869,36.252
37.188,36.194
37.476,36.128
37.727,36.056
37.94,35.974
38.113,35.885
38.245,35.788
38.339,35.686
38.398,35.581
38.424,35.474
38.423,35.369
38.399,35.265
38.356,35.165
38.3,35.07
38.233,34.983
38.156,34.906
38.071,34.838
37.979,34.781
37.882,34.735
37.781,34.699
37.68,34.671
37.581,34.652
37.487,34.639
37.399,34.631
37.32,34.628
37.251,34.627
37.19,34.629
37.138,34.633
37.095,34.639
37.061,34.646
37.033,34.656
37.012,34.667
36.996,34.678
36.983,34.687
36.972,34.693
36.96,34.696
36.947,34.697
36.932,34.695
36.912,34.692
36.886,34.687
36.853,34.681
36.813,34.673
36.765,34.662
36.71,34.648
36.647,34.629
36.576,34.605
36.5,34.576
36.419,34.541
36.333,34.498
36.244,34.448
36.152,34.392
36.058,34.33
35.964,34.264
35.871,34.193
35.78,34.118
35.692,34.039
35.606,33.958
35.525,33.876
35.45,33.794
35.382,33.714
35.323,33.636
35.273,33.563
35.234,33.495
35.205,33.431
35.184,33.372
35.174,33.316
35.172,33.264
35.178,33.216
35.192,33.17
35.212,33.126
35.235,33.084
35.259,33.044
35.284,33.006
35.307,32.968
35.328,32.929
