Trial 3:3back,Trial 5:3back
35.699,36.759
35.692,36.734
35.685,36.706
35.677,36.676
35.668,36.645
35.66,36.614
35.651,36.584
35.641,36.555
35.629,36.527
35.617,36.501
35.603,36.478
35.587,36.457
35.57,36.438
35.552,36.422
35.535,36.409
35.517,36.399
35.499,36.393
35.482,36.388
35.464,36.387
35.446,36.387
35.428,36.39
35.41,36.395
35.391,36.4
35.372,36.406
35.352,36.412
35.332,36.417
35.314,36.42
35.296,36.421
35.279,36.419
35.264,36.416
35.249,36.411
35.235,36.404
35.223,36.395
35.211,36.384
35.2,36.372
35.19,36.357
35.182,36.341
35.174,36.324
35.169,36.305
35.165,36.285
35.162,36.264
35.16,36.241
35.157,36.218
35.154,36.193
35.149,36.166
35.143,36.139
35.136,36.11
35.129,36.08
35.122,36.05
35.116,36.02
35.11,35.991
35.103,35.964
35.095,35.938
35.087,35.914
35.078,35.892
35.068,35.871
35.057,35.853
35.045,35.834
35.032,35.815
35.021,35.795
35.01,35.774
35.001,35.751
34.992,35.726
34.984,35.699
34.976,35.671
34.968,35.642
34.961,35.611
34.954,35.581
34.948,35.55
34.943,35.521
34.939,35.495
34.938,35.472
34.938,35.453
34.941,35.438
34.946,35.427
34.952,35.42
34.958,35.416
34.963,35.414
34.967,35.414
34.97,35.416
34.971,35.42
34.97,35.423
34.968,35.428
34.964,35.432
34.96,35.434
34.956,35.435
34.951,35.434
34.947,35.432
34.943,35.431
34.939,35.43
34.935,35.433
34.931,35.439
34.926,35.448
34.921,35.462
34.915,35.479
34.908,35.501
34.9,35.527
34.891,35.558
34.882,35.593
34.872,35.633
34.863,35.678
34.853,35.727
34.844,35.78
34.834,35.836
34.825,35.893
34.816,35.951
34.807,36.009
34.797,36.065
34.787,36.118
34.774,36.167
34.76,36.21
34.744,36.247
34.728,36.278
34.712,36.302
34.697,36.319
34.683,36.329
34.67,36.332
34.66,36.329
34.654,36.32
34.654,36.306
34.662,36.287
34.677,36.264
34.701,36.236
34.734,36.206
34.777,36.172
34.829,36.135
34.89,36.096
34.96,36.053
35.038,36.008
35.124,35.959
35.217,35.907
35.315,35.852
35.415,35.795
35.511,35.736
35.604,35.675
35.695,35.613
35.783,35.552
35.87,35.49
35.957,35.43
36.042,35.372
36.126,35.318
36.207,35.268
36.283,35.224
36.353,35.184
36.413,35.15
36.464,35.122
36.503,35.099
36.531,35.08
36.549,35.067
36.558,35.057
36.559,35.05
36.553,35.046
36.54,35.044
36.522,35.044
36.5,35.046
36.474,35.049
36.445,35.055
36.416,35.062
36.385,35.07
36.355,35.081
36.326,35.093
36.299,35.107
36.274,35.123
36.251,35.14
36.23,35.159
36.21,35.178
36.19,35.199
36.17,35.22
36.15,35.24
36.132,35.26
36.115,35.279
36.101,35.295
36.09,35.309
36.08,35.319
36.071,35.326
36.063,35.33
36.053,35.329
36.042,35.325
36.028,35.317
36.011,35.306
35.991,35.291
35.969,35.273
35.946,35.252
35.923,35.229
35.901,35.204
35.881,35.177
35.862,35.149
35.843,35.122
35.826,35.094
35.809,35.067
35.792,35.041
35.775,35.017
35.76,34.994
35.747,34.974
35.737,34.955
35.728,34.939
35.721,34.925
35.714,34.914
35.707,34.904
35.7,34.895
35.693,34.888
35.686,34.882
35.679,34.875
35.673,34.867
35.669,34.858
35.665,34.847
35.663,34.834
35.662,34.819
35.663,34.803
35.663,34.787
35.662,34.771
35.661,34.756
35.659,34.742
35.657,34.73
35.654,34.72
35.651,34.713
35.647,34.71
35.643,34.708
35.64,34.708
35.637,34.709
35.635,34.71
35.632,34.71
35.628,34.708
35.624,34.704
35.618,34.698
35.61,34.69
35.601,34.68
35.589,34.668
35.576,34.656
35.562,34.643
35.547,34.63
35.531,34.617
35.514,34.605
35.496,34.594
35.478,34.585
35.459,34.577
35.44,34.572
35.419,34.568
35.397,34.566
35.373,34.565
35.35,34.565
35.327,34.567
35.305,34.569
35.285,34.572
35.268,34.574
35.251,34.576
35.237,34.578
35.224,34.579
35.212,34.579
35.201,34.577
35.191,34.574
35.182,34.568
35.173,34.561
35.165,34.551
35.158,34.54
35.152,34.527
35.148,34.514
35.146,34.501
35.143,34.488
35.141,34.476
35.137,34.465
35.132,34.454
35.126,34.443
35.118,34.432
35.11,34.42
35.099,34.409
35.088,34.398
35.076,34.388
35.064,34.38
35.053,34.372
35.043,34.366
35.034,34.361
35.026,34.358
35.019,34.356
35.013,34.354
35.007,34.352
35.002,34.351
34.997,34.351
34.992,34.349
34.987,34.348
34.982,34.345
34.977,34.342
34.972,34.339
34.967,34.336
34.962,34.333
34.958,34.329
34.953,34.325
34.948,34.319
34.941,34.312
34.934,34.305
34.924,34.3
34.914,34.297
34.902,34.297
34.889,34.298
34.877,34.3
34.866,34.302
34.856,34.303
34.849,34.302
34.843,34.3
34.839,34.295
34.835,34.288
34.832,34.28
34.835,34.269
34.85,34.257
34.877,34.243
34.914,34.229
34.958,34.213
35.003,34.197
35.045,34.181
35.081,34.166
35.105,34.152
35.117,34.14
35.115,34.13
35.098,34.123
35.069,34.119
35.028,34.117
34.978,34.117
34.923,34.119
34.865,34.123
34.807,34.127
34.751,34.135
34.699,34.149
34.654,34.173
34.616,34.203
34.586,34.238
34.564,34.273
34.549,34.305
34.542,34.331
34.541,34.348
34.546,34.355
34.558,34.351
34.576,34.336
34.6,34.312
34.63,34.281
34.664,34.246
34.703,34.211
34.748,34.18
34.8,34.159
34.857,34.15
34.921,34.159
34.99,34.188
35.065,34.241
35.144,34.318
35.228,34.421
35.315,34.549
35.405,34.702
35.495,34.878
35.586,35.074
35.677,35.287
35.765,35.514
35.851,35.749
35.932,35.988
36.007,36.227
36.074,36.46
36.132,36.684
36.181,36.894
36.22,37.088
36.25,37.262
36.271,37.416
36.283,37.547
36.286,37.656
36.283,37.743
36.274,37.808
36.261,37.852
36.242,37.877
36.218,37.883
36.19,37.874
36.159,37.85
36.125,37.814
36.09,37.768
36.054,37.713
36.017,37.651
35.98,37.584
35.945,37.513
35.911,37.442
35.878,37.371
35.849,37.301
35.822,37.235
35.798,37.172
35.777,37.113
35.758,37.057
35.74,37.004
35.723,36.956
35.706,36.911
35.688,36.871
35.667,36.834
35.645,36.802
35.62,36.772
35.594,36.746
35.564,36.721
35.534,36.698
35.502,36.675
35.47,36.652
35.439,36.628
35.409,36.603
35.381,36.576
35.354,36.548
35.33,36.519
35.307,36.49
35.285,36.463
35.265,36.437
35.245,36.413
35.227,36.392
35.21,36.373
35.196,36.356
35.184,36.342
35.176,36.329
35.173,36.318
35.175,36.306
35.182,36.294
35.195,36.282
35.211,36.27
35.229,36.259
35.25,36.248
35.271,36.239
35.292,36.231
35.312,36.223
35.331,36.217
35.349,36.213
35.366,36.21
35.381,36.21
35.395,36.212
35.407,36.216
35.416,36.222
35.421,36.231
35.423,36.241
35.422,36.251
35.417,36.263
35.409,36.273
35.399,36.283
35.387,36.291
35.375,36.297
35.363,36.3
35.35,36.301
35.336,36.298
35.322,36.291
35.307,36.28
35.293,36.264
35.279,36.246
35.265,36.224
35.252,36.2
35.238,36.175
35.224,36.148
35.209,36.121
35.193,36.093
35.176,36.065
35.157,36.037
35.138,36.009
35.117,35.982
35.096,35.955
35.073,35.929
35.049,35.904
35.026,35.879
35.002,35.855
34.979,35.832
34.957,35.81
34.934,35.788
34.911,35.768
34.889,35.748
34.867,35.728
34.846,35.708
34.826,35.688
34.808,35.666
34.791,35.644
34.776,35.621
34.762,35.597
34.75,35.573
34.739,35.55
34.731,35.527
34.725,35.504
34.72,35.483
34.717,35.461
34.715,35.44
34.714,35.419
34.714,35.399
34.714,35.38
34.714,35.361
34.714,35.343
34.714,35.325
34.713,35.308
34.711,35.291
34.71,35.275
34.709,35.26
34.708,35.246
34.706,35.232
34.705,35.22
34.703,35.209
34.701,35.199
34.698,35.191
34.696,35.185
34.694,35.18
34.692,35.176
34.69,35.173
34.688,35.171
34.686,35.167
34.684,35.163
34.681,35.157
34.678,35.15
34.675,35.141
34.671,35.129
34.667,35.116
34.663,35.1
34.66,35.083
34.659,35.064
34.659,35.044
34.659,35.025
34.659,35.006
34.659,34.989
34.658,34.974
34.657,34.963
34.656,34.955
34.653,34.949
34.649,34.946
34.644,34.945
34.638,34.946
34.631,34.948
34.624,34.95
34.618,34.953
34.612,34.954
34.606,34.955
34.6,34.953
34.594,34.95
34.588,34.945
34.582,34.939
34.576,34.931
34.572,34.923
34.569,34.914
34.568,34.905
34.568,34.896
34.57,34.887
34.573,34.878
34.577,34.869
34.583,34.859
34.592,34.849
34.605,34.84
34.623,34.83
34.647,34.821
34.679,34.814
34.718,34.807
34.764,34.801
34.816,34.796
34.876,34.792
34.941,34.789
35.012,34.786
35.088,34.784
35.168,34.78
35.254,34.775
35.344,34.769
35.437,34.761
35.53,34.751
35.622,34.74
35.71,34.727
35.793,34.714
35.868,34.7
35.935,34.685
35.992,34.67
36.039,34.655
36.076,34.64
36.104,34.624
36.123,34.607
36.133,34.588
36.134,34.57
36.126,34.551
36.11,34.534
36.087,34.519
36.059,34.506
36.027,34.496
35.992,34.49
35.957,34.487
35.922,34.486
35.887,34.487
35.852,34.492
35.819,34.501
35.786,34.516
35.755,34.536
35.724,34.565
35.695,34.603
35.666,34.652
35.637,34.713
35.609,34.786
35.582,34.874
35.556,34.976
35.531,35.092
35.508,35.223
35.486,35.367
35.465,35.524
35.444,35.69
35.423,35.863
35.402,36.04
35.38,36.217
35.358,36.39
35.337,36.558
35.316,36.715
35.295,36.859
35.277,36.989
35.26,37.102
35.246,37.196
35.234,37.273
35.226,37.332
35.221,37.373
35.22,37.399
35.223,37.411
35.231,37.411
35.241,37.401
35.253,37.382
35.266,37.355
35.28,37.322
35.294,37.284
35.307,37.242
35.318,37.197
35.329,37.151
35.337,37.104
35.344,37.056
35.35,37.009
35.354,36.963
35.357,36.918
35.36,36.875
35.364,36.835
35.37,36.797
35.376,36.762
35.383,36.731
35.391,36.702
35.4,36.676
35.408,36.652
35.416,36.631
35.423,36.611
35.429,36.592
35.432,36.574
35.433,36.556
35.432,36.538
35.428,36.519
35.421,36.5
35.412,36.479
35.401,36.457
35.388,36.434
35.375,36.41
35.363,36.384
35.35,36.356
35.338,36.328
35.327,36.298
35.315,36.266
35.302,36.234
35.289,36.202
35.274,36.17
35.257,36.139
35.239,36.109
35.221,36.082
35.203,36.057
35.185,36.032
35.168,36.009
35.151,35.987
35.135,35.968
35.119,35.952
35.103,35.941
35.086,35.934
35.069,35.931
35.052,35.933
35.035,35.938
35.019,35.947
35.003,35.959
34.99,35.974
34.979,35.992
34.971,36.011
34.965,36.03
34.961,36.049
34.958,36.067
34.956,36.083
34.955,36.096
34.954,36.106
34.955,36.112
34.957,36.113
34.96,36.11
34.965,36.102
34.972,36.09
34.98,36.073
34.989,36.053
34.997,36.03
35.004,36.003
35.008,35.974
35.009,35.942
35.007,35.906
35.004,35.869
35,35.831
34.995,35.795
34.99,35.76
34.985,35.727
34.98,35.698
34.974,35.673
34.969,35.651
34.963,35.631
34.958,35.614
34.952,35.599
34.948,35.583
34.945,35.566
34.943,35.549
34.942,35.53
34.943,35.509
34.944,35.488
34.945,35.465
34.946,35.441
34.946,35.416
34.945,35.391
34.942,35.366
34.939,35.344
34.936,35.323
34.933,35.304
34.929,35.288
34.926,35.274
34.922,35.262
34.918,35.251
34.913,35.24
34.907,35.229
34.9,35.218
34.891,35.207
34.882,35.194
34.873,35.181
34.864,35.167
34.856,35.153
34.848,35.139
34.841,35.125
34.837,35.112
34.835,35.1
34.836,35.09
34.841,35.08
34.85,35.072
34.864,35.064
34.884,35.057
34.91,35.051
34.942,35.046
34.982,35.041
35.029,35.036
35.085,35.031
35.151,35.027
35.225,35.023
35.309,35.019
35.402,35.015
35.502,35.012
35.61,35.007
35.722,35.001
35.837,34.993
35.953,34.984
36.068,34.975
36.179,34.966
36.285,34.958
36.384,34.952
36.474,34.949
36.554,34.95
36.625,34.954
36.684,34.962
36.731,34.974
36.767,34.988
36.791,35.004
36.804,35.021
36.809,35.039
36.805,35.056
36.794,35.073
36.776,35.089
36.753,35.103
36.726,35.116
36.695,35.127
36.661,35.135
36.626,35.139
36.591,35.14
36.556,35.137
36.522,35.13
36.489,35.118
36.457,35.102
36.427,35.082
36.399,35.064
36.374,35.05
36.352,35.042
36.333,35.038
36.317,35.037
36.304,35.036
36.292,35.034
36.281,35.03
36.269,35.022
36.257,35.011
36.243,34.997
36.228,34.98
36.211,34.96
36.193,34.938
36.175,34.913
36.157,34.887
36.14,34.859
36.123,34.83
36.106,34.801
36.089,34.773
36.071,34.745
36.052,34.72
36.032,34.695
36.012,34.673
35.991,34.651
35.971,34.63
35.953,34.609
35.936,34.59
35.92,34.571
35.906,34.554
35.893,34.539
35.882,34.525
35.871,34.512
35.861,34.501
35.852,34.492
35.845,34.484
35.84,34.48
35.838,34.479
35.837,34.483
35.838,34.493
35.839,34.511
35.84,34.537
35.841,34.573
35.841,34.621
35.841,34.68
35.84,34.751
35.839,34.835
35.837,34.931
35.837,35.04
35.837,35.16
35.838,35.292
35.839,35.433
35.841,35.582
35.842,35.736
35.844,35.893
35.845,36.049
35.846,36.204
35.846,36.353
35.845,36.495
35.844,36.627
35.842,36.748
35.838,36.856
35.832,36.95
35.823,37.03
35.812,37.096
35.799,37.148
35.784,37.185
35.768,37.209
35.751,37.22
35.734,37.219
35.719,37.207
35.705,37.186
35.691,37.157
35.679,37.123
35.666,37.084
35.654,37.043
35.641,37.002
35.627,36.961
35.613,36.921
35.597,36.884
35.578,36.848
35.559,36.815
35.538,36.784
35.517,36.755
35.496,36.727
35.476,36.7
35.457,36.674
35.439,36.647
35.424,36.621
35.41,36.594
35.399,36.568
35.39,36.541
35.383,36.514
35.378,36.488
35.375,36.463
35.373,36.44
35.372,36.418
35.371,36.397
35.372,36.377
35.373,36.358
35.375,36.339
35.377,36.32
35.378,36.3
35.379,36.279
35.381,36.255
35.382,36.23
35.383,36.203
35.384,36.175
35.384,36.146
35.384,36.116
35.383,36.086
35.382,36.057
35.379,36.028
35.376,36.002
35.373,35.979
35.37,35.959
35.368,35.943
35.366,35.931
35.364,35.923
35.363,35.914
35.362,35.903
35.36,35.892
35.358,35.88
35.354,35.87
35.348,35.862
35.341,35.858
35.333,35.859
35.325,35.864
35.317,35.874
35.309,35.888
35.302,35.907
35.295,35.928
35.289,35.951
35.283,35.975
35.276,35.997
35.268,36.017
35.259,36.033
35.249,36.044
35.239,36.051
35.229,36.051
35.218,36.046
35.207,36.035
35.196,36.019
35.185,35.998
35.174,35.974
35.163,35.946
35.152,35.918
35.143,35.888
35.136,35.859
35.132,35.832
35.13,35.806
35.131,35.785
35.133,35.766
35.136,35.75
35.139,35.736
35.142,35.721
35.143,35.707
35.142,35.691
35.139,35.674
35.136,35.656
35.132,35.636
35.129,35.614
35.129,35.59
35.132,35.565
35.141,35.537
35.157,35.509
35.184,35.479
35.22,35.448
35.268,35.415
35.327,35.382
35.397,35.349
35.478,35.316
35.569,35.284
35.67,35.253
35.778,35.225
35.892,35.199
36.01,35.178
36.13,35.159
36.249,35.145
36.364,35.133
36.475,35.126
36.579,35.122
36.674,35.122
36.761,35.125
36.837,35.13
36.901,35.136
36.954,35.143
36.993,35.151
37.02,35.159
37.036,35.165
37.04,35.17
37.035,35.174
37.021,35.175
37.002,35.175
36.977,35.174
36.948,35.17
36.918,35.166
36.885,35.16
36.85,35.153
36.815,35.146
36.779,35.139
36.743,35.133
36.707,35.127
36.673,35.121
36.641,35.116
36.613,35.111
36.588,35.107
36.569,35.103
36.553,35.099
36.54,35.094
36.529,35.088
36.519,35.079
36.509,35.068
36.498,35.054
36.486,35.036
36.471,35.016
36.454,34.993
36.434,34.968
36.413,34.941
36.39,34.913
36.365,34.885
36.339,34.857
36.312,34.83
36.282,34.804
36.251,34.779
36.218,34.757
36.184,34.735
36.149,34.716
36.113,34.698
36.078,34.683
36.043,34.67
36.009,34.659
35.977,34.649
35.946,34.64
35.915,34.632
35.886,34.625
35.858,34.62
35.831,34.617
35.805,34.614
35.779,34.614
35.755,34.615
35.732,34.618
35.711,34.624
35.692,34.632
35.675,34.642
35.661,34.651
35.65,34.66
35.643,34.668
35.638,34.676
35.637,34.682
35.638,34.686
35.641,34.69
35.646,34.691
35.652,34.692
35.657,34.691
35.663,34.69
35.668,34.687
35.673,34.684
35.678,34.681
35.684,34.678
35.69,34.674
35.697,34.671
35.704,34.667
35.71,34.662
35.716,34.655
35.719,34.647
35.721,34.637
35.719,34.626
35.715,34.613
35.708,34.599
35.698,34.584
35.686,34.568
35.671,34.552
35.653,34.534
35.632,34.517
35.608,34.499
35.583,34.481
35.555,34.464
35.526,34.448
35.498,34.433
35.472,34.42
35.449,34.408
35.428,34.399
35.411,34.392
35.395,34.387
35.382,34.382
35.37,34.38
35.359,34.379
35.346,34.379
35.332,34.379
35.318,34.38
35.302,34.381
35.287,34.381
35.273,34.38
35.259,34.378
35.247,34.374
35.237,34.369
35.228,34.363
35.221,34.355
35.214,34.346
35.207,34.336
35.2,34.326
35.192,34.315
35.182,34.305
35.172,34.294
35.161,34.284
35.149,34.275
35.135,34.266
35.12,34.258
35.103,34.25
35.084,34.243
35.064,34.237
35.045,34.232
35.026,34.227
35.008,34.223
34.992,34.22
34.977,34.217
34.962,34.215
34.949,34.213
34.938,34.212
34.928,34.211
34.918,34.211
34.91,34.21
34.901,34.209
34.892,34.207
34.883,34.205
34.875,34.202
34.867,34.198
34.861,34.192
34.856,34.185
34.853,34.178
34.852,34.17
34.852,34.164
34.853,34.159
34.855,34.155
34.857,34.152
34.859,34.15
34.86,34.149
34.86,34.15
34.859,34.15
34.859,34.151
34.86,34.152
34.861,34.153
34.861,34.153
34.861,34.153
34.86,34.152
34.859,34.151
34.856,34.149
34.852,34.147
34.847,34.144
34.84,34.14
34.831,34.134
34.82,34.127
34.808,34.119
34.795,34.11
34.782,34.099
34.768,34.088
34.754,34.077
34.742,34.067
34.73,34.058
34.719,34.052
34.708,34.048
34.698,34.048
34.689,34.051
34.68,34.057
34.671,34.066
34.664,34.076
34.657,34.087
34.651,34.098
34.645,34.108
34.641,34.117
34.637,34.125
34.636,34.13
34.639,34.133
34.647,34.134
34.659,34.133
34.677,34.128
34.701,34.12
34.734,34.11
34.777,34.098
34.83,34.085
34.893,34.071
34.967,34.058
35.051,34.046
35.146,34.036
35.252,34.029
35.367,34.025
35.491,34.023
35.621,34.025
35.753,34.028
35.886,34.034
36.015,34.041
36.138,34.049
36.253,34.058
36.355,34.067
36.445,34.076
36.521,34.082
36.582,34.087
36.63,34.089
36.664,34.09
36.686,34.088
36.697,34.085
36.698,34.079
36.688,34.072
36.67,34.064
36.645,34.055
36.614,34.046
36.579,34.037
36.542,34.029
36.505,34.021
36.469,34.014
36.435,34.007
36.404,34.001
36.374,33.995
36.346,33.989
36.32,33.983
36.295,33.979
36.272,33.976
36.25,33.975
36.231,33.978
36.215,33.987
36.2,34.003
36.188,34.029
36.177,34.069
36.167,34.124
36.157,34.196
36.146,34.288
36.134,34.399
36.121,34.529
36.108,34.679
36.096,34.847
36.084,35.031
36.073,35.23
36.061,35.442
36.049,35.663
36.036,35.89
36.02,36.122
36,36.353
35.977,36.581
35.95,36.802
35.919,37.013
35.885,37.209
35.85,37.388
35.813,37.548
35.778,37.687
35.744,37.802
35.711,37.894
35.682,37.962
35.655,38.007
35.632,38.03
35.612,38.032
35.596,38.017
35.584,37.986
35.576,37.943
35.571,37.892
35.569,37.835
35.568,37.775
35.569,37.714
35.572,37.655
35.576,37.598
35.581,37.543
35.588,37.49
35.596,37.439
35.604,37.389
35.612,37.341
35.619,37.294
35.625,37.247
35.629,37.201
35.63,37.157
35.628,37.114
35.623,37.073
35.615,37.034
35.606,36.998
35.597,36.964
35.587,36.933
35.576,36.905
35.566,36.879
35.555,36.855
35.545,36.833
35.534,36.813
35.523,36.794
35.512,36.776
35.5,36.758
35.488,36.74
35.475,36.722
35.461,36.703
35.448,36.683
35.434,36.663
35.419,36.642
35.403,36.62
35.386,36.597
35.367,36.572
35.348,36.547
35.327,36.521
35.306,36.495
35.284,36.468
35.262,36.442
35.24,36.417
35.218,36.394
35.196,36.373
35.174,36.354
35.152,36.339
35.132,36.328
35.112,36.32
35.092,36.315
35.073,36.313
35.055,36.314
35.04,36.318
35.026,36.324
35.014,36.331
35.003,36.339
34.994,36.347
34.985,36.354
34.974,36.359
34.963,36.362
34.949,36.363
34.934,36.363
34.917,36.36
34.899,36.357
34.88,36.352
34.862,36.346
34.847,36.337
34.834,36.326
34.826,36.312
34.821,36.295
34.82,36.275
34.821,36.251
34.823,36.226
34.827,36.198
34.83,36.169
34.832,36.139
34.834,36.108
34.834,36.079
34.833,36.051
34.832,36.024
34.83,35.999
34.828,35.975
34.825,35.952
34.822,35.93
34.817,35.909
34.812,35.889
34.807,35.869
34.802,35.849
34.798,35.829
34.793,35.808
34.791,35.788
34.79,35.767
34.79,35.745
34.791,35.723
34.796,35.7
34.806,35.676
34.821,35.652
34.84,35.628
34.862,35.606
34.883,35.584
34.903,35.564
34.919,35.546
34.93,35.529
34.934,35.514
34.932,35.501
34.922,35.488
34.906,35.478
34.883,35.468
34.855,35.459
34.825,35.449
34.793,35.439
34.761,35.429
34.732,35.417
34.705,35.405
34.683,35.391
34.665,35.375
34.652,35.357
34.642,35.338
34.634,35.318
34.627,35.296
34.621,35.275
34.613,35.254
34.605,35.233
34.595,35.214
34.585,35.196
34.574,35.18
34.562,35.166
34.551,35.153
34.54,35.142
34.53,35.133
34.521,35.124
34.512,35.117
34.504,35.111
34.498,35.106
34.493,35.101
34.49,35.096
34.489,35.091
34.49,35.086
34.495,35.081
34.503,35.075
34.517,35.069
34.536,35.062
34.563,35.056
34.597,35.049
34.638,35.041
34.689,35.033
34.749,35.025
34.818,35.016
34.897,35.006
34.985,34.995
35.082,34.983
35.187,34.963
35.299,34.937
35.417,34.904
35.538,34.868
35.662,34.83
35.786,34.795
35.907,34.763
36.025,34.739
36.137,34.721
36.24,34.712
36.332,34.709
36.411,34.712
36.478,34.72
36.53,34.732
36.568,34.745
36.592,34.76
36.601,34.774
36.598,34.787
36.583,34.798
36.559,34.808
36.528,34.815
36.491,34.82
36.45,34.823
36.406,34.824
36.361,34.825
36.315,34.825
36.27,34.825
36.226,34.824
36.185,34.823
36.146,34.82
36.11,34.816
36.078,34.811
36.049,34.804
36.024,34.794
36.004,34.78
35.987,34.762
35.973,34.74
35.962,34.715
35.953,34.688
35.946,34.66
35.941,34.632
35.936,34.605
35.932,34.579
35.929,34.555
35.924,34.534
35.917,34.514
35.905,34.497
35.89,34.483
35.869,34.471
35.844,34.463
35.815,34.459
35.784,34.458
35.751,34.461
35.719,34.467
35.688,34.477
35.658,34.491
35.63,34.51
35.602,34.534
35.576,34.565
35.551,34.604
35.527,34.652
35.504,34.711
35.484,34.783
35.467,34.869
35.454,34.97
35.445,35.086
35.44,35.218
35.439,35.364
35.44,35.523
35.443,35.692
35.448,35.868
35.453,36.049
35.458,36.231
35.464,36.41
35.471,36.583
35.478,36.748
35.485,36.901
35.493,37.041
35.5,37.166
35.505,37.274
35.508,37.365
35.508,37.438
35.505,37.495
35.501,37.535
35.495,37.559
35.488,37.569
35.481,37.565
35.475,37.551
35.468,37.527
35.462,37.495
35.454,37.457
35.445,37.415
35.434,37.369
35.421,37.322
35.405,37.274
35.387,37.227
35.367,37.181
35.346,37.135
35.324,37.09
35.303,37.045
35.282,37.001
35.262,36.957
35.244,36.913
35.227,36.871
35.211,36.829
35.196,36.79
35.182,36.752
35.168,36.718
35.154,36.686
35.142,36.659
35.13,36.634
35.119,36.613
35.108,36.594
35.098,36.577
35.087,36.562
35.076,36.546
35.064,36.53
35.052,36.511
35.039,36.49
35.024,36.466
35.008,36.437
34.991,36.405
34.972,36.369
34.953,36.331
34.934,36.291
34.916,36.251
34.901,36.213
34.888,36.179
34.877,36.148
34.868,36.123
34.86,36.102
34.853,36.087
34.846,36.077
34.839,36.07
34.832,36.067
34.826,36.067
34.82,36.069
34.814,36.073
34.808,36.079
34.803,36.085
34.798,36.092
34.794,36.099
34.79,36.106
34.788,36.113
34.787,36.12
34.785,36.127
34.784,36.133
34.782,36.14
34.781,36.148
34.779,36.155
34.777,36.161
34.775,36.168
34.773,36.174
34.77,36.18
34.767,36.183
34.764,36.185
34.76,36.184
34.756,36.181
34.752,36.174
34.747,36.166
34.742,36.156
34.735,36.144
34.728,36.13
34.72,36.115
34.711,36.098
34.703,36.078
34.694,36.056
34.686,36.031
34.68,36.003
34.675,35.972
34.672,35.94
34.671,35.906
34.67,35.871
34.67,35.836
34.669,35.802
34.667,35.769
34.663,35.737
34.658,35.706
34.651,35.676
34.643,35.647
34.635,35.618
34.627,35.59
34.62,35.563
34.614,35.537
34.61,35.512
34.607,35.488
34.603,35.466
34.599,35.445
34.594,35.425
34.587,35.407
34.58,35.39
34.573,35.375
34.567,35.362
34.563,35.349
34.56,35.338
34.56,35.328
34.561,35.319
34.564,35.31
34.566,35.301
34.567,35.292
34.566,35.282
34.563,35.271
34.555,35.259
34.543,35.246
34.527,35.231
34.51,35.214
34.491,35.196
34.472,35.178
34.454,35.158
34.437,35.14
34.421,35.122
34.407,35.106
34.394,35.092
34.384,35.08
34.378,35.069
34.376,35.06
34.38,35.052
34.392,35.046
34.411,35.041
34.44,35.036
34.478,35.031
34.524,35.026
34.579,35.02
34.642,35.013
34.714,35.005
34.795,34.994
34.884,34.982
34.981,34.969
35.087,34.955
35.199,34.94
35.318,34.925
35.441,34.91
35.568,34.896
35.695,34.882
35.82,34.87
35.941,34.86
36.056,34.852
36.163,34.846
36.259,34.843
36.344,34.84
36.416,34.839
36.474,34.838
36.519,34.837
36.55,34.836
36.567,34.835
36.571,34.832
36.565,34.829
36.55,34.825
36.527,34.819
36.499,34.813
36.466,34.806
36.431,34.798
36.393,34.789
36.354,34.78
36.316,34.77
36.277,34.76
36.239,34.749
36.202,34.737
36.166,34.725
36.131,34.713
36.098,34.702
36.067,34.691
36.037,34.681
36.007,34.673
35.979,34.666
35.952,34.66
35.927,34.656
35.903,34.653
35.881,34.651
35.86,34.649
35.84,34.647
35.82,34.645
35.8,34.643
35.779,34.64
35.759,34.638
35.738,34.634
35.718,34.63
35.699,34.625
35.679,34.618
35.66,34.61
35.641,34.6
35.622,34.59
35.602,34.578
35.582,34.564
35.561,34.55
35.54,34.536
35.518,34.521
35.496,34.507
35.475,34.493
35.454,34.48
35.436,34.469
35.419,34.461
35.404,34.454
35.392,34.449
35.381,34.446
35.374,34.446
35.371,34.448
35.37,34.455
35.374,34.466
35.38,34.483
35.39,34.507
35.401,34.538
35.412,34.578
35.423,34.628
35.434,34.688
35.444,34.76
35.452,34.843
35.459,34.938
35.463,35.045
35.465,35.165
35.466,35.298
35.465,35.442
35.461,35.596
35.456,35.758
35.449,35.927
35.439,36.098
35.429,36.269
35.418,36.436
35.406,36.598
35.395,36.751
35.383,36.892
35.371,37.02
35.357,37.134
35.342,37.231
35.325,37.312
35.306,37.376
35.285,37.423
35.262,37.455
35.238,37.472
35.214,37.477
35.19,37.471
35.166,37.455
35.142,37.431
35.12,37.4
35.099,37.364
35.08,37.324
35.062,37.282
35.045,37.238
35.029,37.194
35.014,37.15
35,37.107
34.986,37.066
34.972,37.027
34.96,36.989
34.949,36.954
34.939,36.92
34.931,36.889
34.924,36.859
34.919,36.831
34.914,36.806
34.91,36.781
34.906,36.758
34.904,36.736
34.903,36.714
34.901,36.692
34.899,36.67
34.897,36.648
34.894,36.626
34.891,36.604
34.886,36.581
34.88,36.557
34.873,36.532
34.864,36.506
34.856,36.479
34.848,36.452
34.84,36.425
34.833,36.397
34.827,36.369
34.821,36.342
34.816,36.316
34.81,36.29
34.803,36.266
34.796,36.242
34.789,36.222
34.78,36.205
34.771,36.192
34.761,36.184
34.751,36.182
34.742,36.183
34.732,36.189
34.724,36.198
34.716,36.21
34.71,36.224
34.705,36.239
34.701,36.255
34.699,36.271
34.697,36.286
34.696,36.3
34.696,36.311
34.696,36.32
34.696,36.326
34.695,36.329
34.693,36.331
34.691,36.331
34.688,36.329
34.685,36.327
34.681,36.325
34.677,36.321
34.673,36.317
34.669,36.311
34.665,36.304
34.661,36.294
34.658,36.281
34.654,36.266
34.649,36.247
34.644,36.224
34.639,36.199
34.632,36.171
34.625,36.14
34.618,36.107
34.611,36.074
34.604,36.042
34.597,36.011
34.591,35.982
34.586,35.955
34.583,35.93
34.582,35.907
34.583,35.885
34.585,35.865
34.587,35.847
34.589,35.828
34.589,35.809
34.588,35.79
34.585,35.771
34.58,35.75
34.573,35.728
34.565,35.705
34.555,35.681
34.545,35.657
34.536,35.631
34.526,35.607
34.516,35.583
34.507,35.561
34.498,35.542
34.488,35.525
34.478,35.51
34.467,35.495
34.457,35.481
34.448,35.468
34.441,35.455
34.435,35.444
34.431,35.434
34.427,35.427
34.426,35.423
34.426,35.42
34.429,35.421
34.435,35.423
34.446,35.429
34.463,35.436
34.487,35.447
34.52,35.46
34.563,35.476
34.618,35.494
34.684,35.515
34.761,35.538
34.848,35.563
34.944,35.591
35.046,35.621
35.154,35.653
35.266,35.689
35.381,35.727
35.496,35.769
35.612,35.813
35.725,35.86
35.835,35.91
35.94,35.96
36.038,36.011
36.129,36.063
36.21,36.113
36.28,36.16
36.338,36.202
36.384,36.239
36.419,36.27
36.442,36.294
36.456,36.311
36.461,36.32
36.457,36.323
36.446,36.319
36.428,36.31
36.403,36.295
36.373,36.277
36.338,36.254
36.299,36.228
36.257,36.198
36.213,36.164
36.169,36.126
36.124,36.085
36.081,36.038
36.04,35.988
36.001,35.934
35.964,35.875
35.93,35.812
35.898,35.747
35.869,35.68
35.843,35.611
35.82,35.543
35.799,35.476
35.78,35.412
35.763,35.353
35.747,35.298
35.732,35.25
35.717,35.21
35.701,35.177
35.685,35.152
35.669,35.134
35.651,35.124
35.632,35.12
35.611,35.121
35.59,35.127
35.567,35.137
35.542,35.15
35.516,35.165
35.489,35.181
35.461,35.198
35.433,35.214
35.406,35.23
35.379,35.247
35.354,35.263
35.331,35.279
35.312,35.294
35.296,35.31
35.284,35.326
35.276,35.343
35.271,35.36
35.27,35.376
35.272,35.392
35.277,35.406
35.284,35.42
35.294,35.433
35.305,35.446
35.318,35.458
35.331,35.468
35.345,35.477
35.36,35.484
35.376,35.489
35.392,35.491
35.408,35.491
35.423,35.488
35.436,35.482
35.447,35.473
35.455,35.461
35.46,35.446
35.463,35.429
35.463,35.41
35.46,35.389
35.454,35.367
35.444,35.343
35.432,35.318
35.416,35.293
35.398,35.266
35.379,35.238
35.359,35.21
35.339,35.182
35.319,35.155
35.3,35.129
35.282,35.104
35.263,35.081
35.245,35.06
35.226,35.041
35.207,35.023
35.188,35.007
35.168,34.991
35.148,34.976
35.129,34.961
35.111,34.947
35.094,34.935
35.08,34.923
35.067,34.912
35.055,34.903
35.043,34.895
35.031,34.889
35.018,34.885
35.004,34.882
34.989,34.88
34.974,34.879
34.96,34.879
34.945,34.879
34.931,34.879
34.919,34.879
34.907,34.876
34.896,34.872
34.885,34.864
34.874,34.854
34.863,34.841
34.853,34.826
34.843,34.807
34.834,34.787
34.827,34.765
34.822,34.744
34.819,34.724
34.819,34.706
34.821,34.691
34.825,34.678
34.832,34.672
34.84,34.673
34.848,34.683
34.858,34.701
34.868,34.725
34.879,34.752
34.892,34.781
34.907,34.809
34.926,34.834
34.948,34.853
34.975,34.866
35.005,34.872
35.039,34.87
35.077,34.862
35.12,34.847
35.168,34.826
35.22,34.8
35.278,34.771
35.339,34.739
35.402,34.705
35.467,34.671
35.532,34.638
35.595,34.608
35.654,34.58
35.71,34.557
35.761,34.538
35.804,34.524
35.841,34.515
35.87,34.511
35.893,34.512
35.909,34.515
35.92,34.52
35.925,34.525
35.925,34.529
35.919,34.532
35.909,34.534
35.895,34.535
35.878,34.534
35.859,34.532
35.838,34.529
35.816,34.527
35.792,34.525
35.766,34.524
35.74,34.525
35.711,34.526
35.68,34.528
35.646,34.529
35.611,34.53
35.573,34.53
35.535,34.529
35.495,34.526
35.454,34.522
35.412,34.517
35.369,34.512
35.326,34.506
35.282,34.502
35.237,34.498
35.193,34.495
35.149,34.494
35.106,34.493
35.064,34.494
35.024,34.497
34.986,34.501
34.952,34.507
34.921,34.512
34.894,34.516
34.869,34.517
34.849,34.516
34.832,34.512
34.82,34.504
34.813,34.493
34.812,34.481
34.814,34.468
34.821,34.454
34.831,34.441
34.845,34.43
34.86,34.421
34.879,34.415
34.9,34.412
34.923,34.412
34.949,34.415
34.978,34.42
35.009,34.425
35.04,34.431
35.072,34.437
35.102,34.442
35.13,34.446
35.154,34.448
35.175,34.448
35.19,34.447
35.201,34.445
35.207,34.442
35.21,34.438
35.207,34.433
35.2,34.428
35.189,34.422
35.175,34.417
35.159,34.411
35.142,34.405
35.124,34.4
35.105,34.397
35.087,34.394
35.07,34.394
35.053,34.394
35.037,34.396
35.021,34.399
35.003,34.402
34.985,34.404
34.966,34.406
34.946,34.406
34.925,34.405
34.905,34.402
34.887,34.398
34.869,34.392
34.855,34.383
34.842,34.374
34.832,34.363
34.823,34.351
34.815,34.339
34.807,34.328
34.799,34.318
34.79,34.311
34.78,34.308
34.77,34.309
34.76,34.317
34.75,34.333
34.742,34.359
34.735,34.397
34.728,34.45
34.722,34.517
34.716,34.603
34.71,34.707
34.704,34.831
34.698,34.975
34.691,35.138
34.685,35.32
34.679,35.517
34.674,35.728
34.669,35.948
34.664,36.173
34.661,36.399
34.658,36.622
34.656,36.838
34.653,37.043
34.651,37.235
34.649,37.409
34.648,37.565
34.649,37.702
34.649,37.818
34.651,37.914
34.652,37.99
34.653,38.047
34.654,38.085
34.654,38.106
34.653,38.112
34.65,38.105
34.646,38.087
34.642,38.059
34.636,38.024
34.631,37.984
34.625,37.941
34.62,37.896
34.616,37.85
34.612,37.805
34.609,37.762
34.606,37.721
34.603,37.684
34.598,37.651
34.592,37.622
34.584,37.597
34.576,37.577
34.566,37.56
34.557,37.546
34.549,37.535
34.542,37.525
34.536,37.516
34.532,37.507
34.53,37.497
34.529,37.487
34.531,37.477
34.535,37.466
34.539,37.455
34.544,37.445
34.55,37.434
34.555,37.423
34.561,37.412
34.566,37.4
34.57,37.387
34.574,37.372
34.577,37.355
34.579,37.34
34.578,37.33
34.576,37.324
34.573,37.319
34.57,37.315
34.565,37.307
34.559,37.295
34.553,37.277
34.545,37.252
34.538,37.221
34.53,37.184
34.523,37.142
34.515,37.098
34.507,37.053
34.499,37.008
34.49,36.966
34.481,36.929
34.472,36.896
34.464,36.869
34.457,36.848
34.453,36.832
34.451,36.82
34.45,36.811
34.452,36.805
34.455,36.801
34.457,36.797
34.46,36.795
34.461,36.792
34.46,36.79
34.458,36.787
34.455,36.785
34.453,36.782
34.452,36.778
34.452,36.773
34.454,36.765
34.456,36.755
34.458,36.745
34.459,36.732
34.46,36.719
34.458,36.705
34.455,36.691
34.451,36.677
34.446,36.663
34.44,36.649
34.434,36.635
34.429,36.621
34.425,36.608
34.421,36.594
34.419,36.58
34.417,36.566
34.415,36.551
34.412,36.536
34.409,36.519
34.405,36.502
34.4,36.483
34.393,36.462
34.384,36.439
34.376,36.414
34.368,36.387
34.36,36.357
34.354,36.327
34.349,36.296
34.345,36.264
34.343,36.233
34.344,36.203
34.349,36.174
34.36,36.146
34.379,36.121
34.408,36.097
34.449,36.074
34.503,36.054
34.572,36.036
34.655,36.019
34.751,36.002
34.86,35.987
34.98,35.971
35.11,35.955
35.248,35.938
35.393,35.921
35.545,35.903
35.702,35.883
35.862,35.862
36.022,35.84
36.181,35.816
36.335,35.791
36.483,35.766
36.62,35.74
36.745,35.715
36.855,35.691
36.949,35.67
37.026,35.652
37.085,35.637
37.128,35.624
37.153,35.615
37.163,35.608
37.157,35.604
37.139,35.601
37.11,35.6
37.071,35.598
37.024,35.596
36.973,35.592
36.917,35.587
36.859,35.579
36.8,35.569
36.74,35.556
36.68,35.541
36.618,35.524
36.553,35.506
36.485,35.487
36.418,35.468
36.355,35.449
36.297,35.43
36.247,35.412
36.206,35.396
36.174,35.381
36.151,35.369
36.137,35.358
36.132,35.349
36.134,35.342
36.142,35.337
36.156,35.334
36.173,35.331
36.192,35.329
36.21,35.326
36.227,35.323
36.24,35.318
36.249,35.311
36.252,35.302
36.25,35.291
36.241,35.279
36.227,35.266
36.209,35.253
36.185,35.241
36.157,35.228
36.126,35.217
36.093,35.207
36.059,35.197
36.025,35.189
35.992,35.182
35.96,35.175
35.93,35.168
35.904,35.16
35.881,35.151
35.862,35.141
35.846,35.128
35.834,35.115
35.826,35.099
35.82,35.083
35.817,35.067
35.815,35.051
35.816,35.036
35.818,35.022
35.821,35.009
35.825,34.997
35.828,34.985
35.831,34.972
35.832,34.96
35.832,34.949
35.83,34.938
35.827,34.927
35.823,34.917
35.817,34.907
35.809,34.898
35.8,34.889
35.79,34.881
35.78,34.874
35.768,34.867
35.757,34.861
35.746,34.854
35.736,34.848
35.727,34.841
35.719,34.833
35.712,34.824
35.704,34.815
35.695,34.805
35.683,34.794
35.67,34.782
35.654,34.769
35.634,34.755
35.613,34.743
35.59,34.732
35.566,34.724
35.542,34.72
35.52,34.722
35.498,34.732
35.477,34.753
35.457,34.784
35.438,34.828
35.419,34.885
35.401,34.957
35.384,35.044
35.368,35.148
35.354,35.266
35.342,35.398
35.332,35.541
35.324,35.692
35.316,35.849
35.307,36.008
35.294,36.168
35.278,36.326
35.259,36.479
35.239,36.626
35.219,36.765
35.199,36.894
35.181,37.013
35.165,37.121
35.15,37.217
35.138,37.302
35.127,37.375
35.117,37.435
35.107,37.485
35.098,37.524
35.091,37.551
35.085,37.569
35.08,37.576
35.077,37.574
35.076,37.564
35.075,37.547
35.074,37.524
35.072,37.496
35.069,37.465
35.065,37.43
35.059,37.393
35.051,37.355
35.042,37.317
35.032,37.281
35.022,37.248
35.011,37.218
35.001,37.191
34.992,37.167
34.985,37.147
34.981,37.131
34.979,37.117
34.979,37.107
34.981,37.098
34.985,37.09
34.99,37.083
34.993,37.076
34.995,37.068
34.994,37.058
34.992,37.044
34.987,37.027
34.982,37.005
34.976,36.979
34.97,36.95
34.965,36.916
34.961,36.879
34.958,36.84
34.955,36.799
34.953,36.757
34.952,36.716
34.95,36.675
34.948,36.636
34.946,36.6
34.942,36.567
34.938,36.538
34.934,36.511
34.929,36.487
34.924,36.467
34.917,36.449
34.91,36.435
34.901,36.423
34.892,36.415
34.883,36.41
34.873,36.409
34.863,36.411
34.854,36.415
34.846,36.422
34.838,36.431
34.831,36.442
34.824,36.455
34.817,36.467
34.811,36.48
34.804,36.491
34.797,36.501
34.789,36.508
34.781,36.513
34.773,36.515
34.765,36.514
34.759,36.51
34.753,36.503
34.748,36.495
34.744,36.484
34.741,36.473
34.738,36.46
34.737,36.447
34.736,36.432
34.737,36.415
34.74,36.396
34.744,36.375
34.752,36.353
34.764,36.33
34.781,36.306
34.804,36.281
34.835,36.254
34.874,36.226
34.923,36.197
34.982,36.167
35.052,36.137
35.133,36.106
35.225,36.075
35.325,36.045
35.433,36.015
35.546,35.986
35.662,35.958
35.78,35.933
35.896,35.909
36.009,35.888
36.117,35.869
36.219,35.852
36.313,35.837
36.399,35.823
36.475,35.81
36.541,35.797
36.596,35.783
36.639,35.767
36.671,35.75
36.69,35.732
36.699,35.712
36.697,35.691
36.687,35.669
36.669,35.647
36.645,35.625
36.616,35.604
36.582,35.583
36.544,35.564
36.502,35.546
36.457,35.529
36.41,35.515
36.363,35.502
36.316,35.491
36.271,35.481
36.23,35.474
36.193,35.469
36.164,35.466
36.14,35.467
36.123,35.47
36.112,35.477
36.104,35.487
36.099,35.501
36.096,35.518
36.093,35.54
36.09,35.565
36.088,35.596
36.084,35.631
36.08,35.671
36.072,35.716
36.061,35.765
36.048,35.819
36.031,35.876
36.011,35.935
35.989,35.997
35.964,36.06
35.937,36.124
35.909,36.19
35.879,36.254
35.85,36.317
35.82,36.378
35.79,36.434
35.761,36.486
35.734,36.532
35.708,36.571
35.685,36.605
35.665,36.632
35.647,36.653
35.632,36.668
35.619,36.677
35.609,36.68
35.603,36.679
35.599,36.674
35.599,36.666
35.6,36.656
35.604,36.643
35.61,36.628
35.617,36.611
35.624,36.593
35.631,36.571
35.637,36.546
35.642,36.517
35.647,36.483
35.65,36.445
35.653,36.401
35.656,36.353
35.658,36.3
35.658,36.243
35.657,36.183
35.654,36.121
35.65,36.058
35.645,35.996
35.638,35.934
35.629,35.875
35.619,35.818
35.608,35.764
35.596,35.713
35.584,35.667
35.57,35.625
35.555,35.589
35.538,35.557
35.52,35.529
35.501,35.507
35.481,35.488
35.461,35.474
35.441,35.463
35.421,35.455
35.401,35.451
35.382,35.449
35.362,35.452
35.343,35.458
35.325,35.467
35.306,35.48
35.288,35.496
35.271,35.514
35.254,35.535
35.238,35.557
35.223,35.577
35.211,35.596
35.202,35.612
35.194,35.627
35.188,35.641
35.182,35.653
35.176,35.663
35.17,35.672
35.162,35.68
35.154,35.687
35.145,35.692
35.135,35.697
35.125,35.7
35.116,35.701
35.107,35.699
35.099,35.695
35.09,35.688
35.082,35.678
35.073,35.664
35.064,35.647
35.053,35.627
35.042,35.603
35.032,35.577
35.022,35.549
35.014,35.52
35.007,35.489
35.001,35.459
34.997,35.428
34.994,35.397
34.99,35.367
34.987,35.338
34.983,35.311
34.979,35.283
34.975,35.255
34.97,35.227
34.967,35.199
34.964,35.173
34.962,35.149
34.961,35.127
34.958,35.107
34.955,35.09
34.95,35.076
34.945,35.065
34.937,35.056
34.927,35.05
34.916,35.047
34.903,35.045
34.89,35.045
34.88,35.046
34.871,35.047
34.864,35.047
34.86,35.046
34.858,35.042
34.858,35.035
34.858,35.026
34.858,35.014
34.859,35
34.861,34.983
34.863,34.965
34.865,34.945
34.867,34.923
34.87,34.9
34.873,34.877
34.875,34.853
34.877,34.831
34.877,34.811
34.875,34.794
34.871,34.781
34.865,34.774
34.857,34.77
34.847,34.771
34.836,34.776
34.823,34.782
34.811,34.79
34.799,34.797
34.788,34.804
34.777,34.809
34.768,34.812
34.759,34.813
34.752,34.811
34.746,34.806
34.742,34.797
34.739,34.785
34.738,34.77
34.738,34.752
34.739,34.732
34.74,34.71
34.741,34.688
34.743,34.667
34.746,34.647
34.75,34.63
34.757,34.615
34.768,34.603
34.783,34.594
34.804,34.588
34.831,34.585
34.866,34.584
34.909,34.585
34.961,34.586
35.023,34.587
35.095,34.588
35.177,34.588
35.269,34.586
35.369,34.584
35.476,34.581
35.588,34.576
35.703,34.57
35.82,34.564
35.936,34.557
36.05,34.549
36.158,34.541
36.259,34.531
36.351,34.52
36.433,34.509
36.504,34.496
36.562,34.482
36.608,34.468
36.642,34.453
36.663,34.438
36.674,34.423
36.674,34.409
36.666,34.395
36.651,34.382
36.63,34.371
36.605,34.362
36.575,34.356
36.543,34.351
36.511,34.349
36.48,34.348
36.452,34.346
36.427,34.345
36.404,34.342
36.382,34.337
36.359,34.33
36.336,34.321
36.314,34.31
36.291,34.298
36.268,34.286
36.245,34.273
36.223,34.262
36.204,34.251
36.186,34.243
36.171,34.236
36.157,34.232
36.143,34.229
36.128,34.229
36.112,34.231
36.093,34.234
36.072,34.238
36.048,34.243
36.023,34.249
35.996,34.256
35.968,34.262
35.941,34.268
35.915,34.274
35.891,34.278
35.868,34.281
35.845,34.282
35.823,34.282
35.802,34.28
35.782,34.276
35.763,34.271
35.746,34.264
35.731,34.258
35.718,34.254
35.708,34.254
35.699,34.257
35.692,34.264
35.686,34.273
35.68,34.283
35.674,34.292
35.668,34.3
35.663,34.306
35.658,34.308
35.649,34.309
35.634,34.306
35.615,34.301
35.592,34.293
35.57,34.283
35.55,34.272
35.534,34.26
35.525,34.248
35.523,34.236
35.527,34.223
35.538,34.211
35.553,34.199
35.572,34.187
35.594,34.175
35.616,34.162
35.637,34.149
35.656,34.136
35.67,34.122
35.679,34.109
35.681,34.096
35.678,34.083
35.671,34.073
35.659,34.065
35.644,34.059
35.627,34.056
35.608,34.054
35.59,34.054
35.572,34.056
35.554,34.059
35.537,34.061
35.518,34.063
35.498,34.065
35.476,34.066
35.452,34.067
35.427,34.067
35.402,34.066
35.375,34.065
35.35,34.064
35.325,34.065
35.303,34.069
35.283,34.078
35.266,34.093
35.25,34.116
35.236,34.15
35.224,34.197
35.211,34.258
35.201,34.336
35.192,34.43
35.185,34.543
35.181,34.675
35.18,34.825
35.181,34.993
35.184,35.178
35.189,35.377
35.194,35.587
35.199,35.804
35.202,36.026
35.205,36.248
35.206,36.466
35.205,36.677
35.203,36.876
35.198,37.061
35.192,37.228
35.185,37.376
35.176,37.505
35.167,37.613
35.157,37.701
35.147,37.77
35.137,37.822
35.127,37.858
35.117,37.88
35.106,37.89
35.095,37.89
35.085,37.88
35.075,37.862
35.065,37.837
35.057,37.808
35.049,37.774
35.043,37.738
35.038,37.7
35.033,37.661
35.029,37.623
35.026,37.587
35.023,37.552
35.021,37.52
35.02,37.492
35.02,37.468
35.02,37.45
35.02,37.437
35.02,37.429
35.019,37.427
35.017,37.429
35.014,37.434
35.01,37.442
35.005,37.45
34.998,37.458
34.991,37.465
34.982,37.469
34.973,37.469
34.963,37.466
34.953,37.459
34.942,37.448
34.931,37.432
34.921,37.414
34.911,37.392
34.903,37.367
34.895,37.338
34.89,37.308
34.886,37.275
34.884,37.24
34.882,37.204
34.879,37.167
34.876,37.13
34.871,37.093
34.863,37.057
34.853,37.023
34.841,36.99
34.828,36.959
34.814,36.93
34.801,36.904
34.789,36.881
34.779,36.861
34.771,36.844
34.763,36.83
34.757,36.82
34.753,36.813
34.75,36.81
34.748,36.81
34.748,36.811
34.75,36.815
34.754,36.82
34.763,36.825
34.775,36.83
34.793,36.835
34.815,36.838
34.842,36.841
34.874,36.842
34.912,36.842
34.956,36.84
35.008,36.834
35.068,36.826
35.139,36.815
35.218,36.801
35.306,36.784
35.401,36.765
35.502,36.742
35.606,36.717
35.711,36.69
35.814,36.661
35.913,36.632
36.006,36.602
36.093,36.573
36.172,36.545
36.242,36.516
36.304,36.488
36.355,36.46
36.397,36.431
36.429,36.402
36.45,36.372
36.462,36.34
36.466,36.308
36.462,36.275
36.451,36.241
36.435,36.207
36.417,36.173
36.396,36.139
36.373,36.106
36.349,36.075
36.325,36.046
36.3,36.019
36.276,35.995
36.254,35.973
36.232,35.953
36.211,35.935
36.191,35.919
36.173,35.904
36.158,35.889
36.146,35.875
36.137,35.86
36.131,35.844
36.127,35.827
36.124,35.808
36.121,35.788
36.119,35.767
36.116,35.743
36.113,35.718
36.108,35.692
36.102,35.666
36.093,35.641
36.083,35.616
36.07,35.594
36.055,35.574
36.039,35.557
36.02,35.542
36.001,35.53
35.98,35.519
35.958,35.508
35.935,35.497
35.911,35.485
35.887,35.473
35.863,35.46
35.84,35.445
35.818,35.429
35.796,35.413
35.776,35.395
35.756,35.377
35.738,35.358
35.721,35.34
35.706,35.322
35.694,35.305
35.685,35.289
35.679,35.274
35.677,35.26
35.679,35.248
35.683,35.236
35.691,35.225
35.701,35.215
35.712,35.205
35.725,35.196
35.74,35.187
35.755,35.177
35.771,35.168
35.786,35.158
35.799,35.148
35.809,35.138
35.815,35.128
35.816,35.118
35.813,35.107
35.806,35.097
35.795,35.086
35.779,35.076
35.761,35.065
35.74,35.053
35.718,35.041
35.695,35.028
35.672,35.014
35.649,35
35.627,34.987
35.606,34.972
35.586,34.957
35.568,34.942
35.551,34.926
35.535,34.91
35.52,34.894
35.506,34.879
35.492,34.864
35.478,34.851
35.464,34.837
35.449,34.824
35.435,34.812
35.42,34.8
35.404,34.79
35.389,34.78
35.374,34.771
35.361,34.762
35.349,34.754
35.339,34.746
35.329,34.738
35.32,34.731
35.31,34.725
35.298,34.719
35.285,34.714
35.269,34.709
35.252,34.704
35.235,34.699
35.22,34.693
35.206,34.687
35.194,34.68
35.185,34.673
35.177,34.666
35.169,34.658
35.162,34.65
35.155,34.641
35.147,34.63
35.139,34.618
35.131,34.604
35.123,34.588
35.115,34.57
35.107,34.55
35.1,34.528
35.094,34.504
35.089,34.48
35.085,34.455
35.081,34.431
35.077,34.409
35.072,34.39
35.066,34.375
35.06,34.364
35.053,34.358
35.045,34.355
35.038,34.356
35.03,34.359
35.024,34.365
35.018,34.371
35.013,34.379
35.008,34.386
35.005,34.392
35.001,34.396
34.999,34.398
34.997,34.398
34.995,34.395
34.994,34.389
34.992,34.38
34.991,34.367
34.99,34.353
34.988,34.337
34.985,34.321
34.982,34.306
34.979,34.293
34.975,34.284
34.97,34.281
34.964,34.286
34.958,34.3
34.952,34.326
34.945,34.365
34.939,34.415
34.932,34.474
34.926,34.545
34.92,34.627
34.914,34.722
34.908,34.832
34.902,34.958
34.895,35.099
34.887,35.253
34.879,35.419
34.869,35.594
34.86,35.775
34.851,35.957
34.843,36.139
34.835,36.316
34.828,36.485
34.823,36.643
34.82,36.788
34.818,36.917
34.817,37.031
34.816,37.128
34.816,37.209
34.815,37.274
34.813,37.324
34.811,37.36
34.808,37.383
34.805,37.394
34.801,37.396
34.797,37.388
34.793,37.374
34.788,37.353
34.783,37.328
34.778,37.301
34.773,37.271
34.769,37.24
34.765,37.209
34.761,37.178
34.759,37.148
34.758,37.121
34.76,37.098
34.764,37.078
34.773,37.062
34.787,37.051
34.809,37.044
34.839,37.041
34.88,37.042
34.931,37.045
34.994,37.049
35.066,37.053
35.148,37.056
35.238,37.057
35.334,37.054
35.434,37.048
35.537,37.037
35.642,37.022
35.746,37.003
35.849,36.98
35.949,36.954
36.045,36.926
36.135,36.896
36.218,36.865
36.292,36.833
36.357,36.802
36.411,36.771
36.454,36.739
36.485,36.707
36.506,36.675
36.517,36.642
36.52,36.608
36.516,36.573
36.506,36.539
36.49,36.504
36.469,36.47
36.444,36.437
36.416,36.405
36.386,36.375
36.357,36.347
36.33,36.323
36.307,36.303
36.287,36.288
36.278,36.279
36.282,36.274
36.299,36.276
36.326,36.281
36.359,36.291
36.393,36.303
36.426,36.315
36.452,36.328
36.47,36.338
36.479,36.346
36.479,36.35
36.468,36.35
36.447,36.346
36.416,36.338
36.377,36.325
36.33,36.309
36.278,36.29
36.222,36.268
36.165,36.243
36.109,36.218
36.055,36.192
36.004,36.168
35.958,36.145
35.917,36.124
35.88,36.106
35.849,36.089
35.823,36.074
35.802,36.06
35.786,36.045
35.774,36.028
35.767,36.011
35.763,35.992
35.763,35.971
35.765,35.949
35.77,35.925
35.776,35.9
35.783,35.875
35.791,35.848
35.8,35.822
35.809,35.796
35.819,35.77
35.828,35.744
35.838,35.719
35.849,35.694
35.861,35.67
35.872,35.645
35.884,35.62
35.895,35.595
35.905,35.57
35.913,35.544
35.919,35.519
35.922,35.494
35.923,35.47
35.921,35.448
35.916,35.428
35.908,35.412
35.897,35.398
35.883,35.386
35.865,35.375
35.845,35.365
35.823,35.353
35.799,35.34
35.773,35.325
35.747,35.308
35.72,35.288
35.693,35.266
35.666,35.243
35.64,35.219
35.614,35.196
35.59,35.173
35.567,35.151
35.545,35.131
35.526,35.111
35.507,35.092
35.49,35.074
35.474,35.056
35.46,35.038
35.446,35.019
35.433,34.999
35.42,34.979
35.408,34.958
35.396,34.935
35.386,34.913
35.378,34.89
35.37,34.867
35.364,34.845
35.358,34.824
35.354,34.804
35.351,34.787
35.349,34.772
35.349,34.761
35.348,34.754
35.348,34.751
35.345,34.752
35.341,34.756
35.335,34.762
35.325,34.77
35.314,34.778
35.3,34.785
35.286,34.791
35.272,34.795
35.259,34.795
35.248,34.792
35.239,34.785
35.233,34.775
35.228,34.761
35.226,34.744
35.225,34.726
35.226,34.706
35.23,34.686
35.237,34.665
35.246,34.645
35.258,34.626
35.274,34.609
35.292,34.593
35.314,34.58
35.337,34.569
35.361,34.56
35.386,34.555
35.412,34.551
35.438,34.55
35.464,34.549
35.49,34.549
35.517,34.549
35.543,34.546
35.569,34.543
35.593,34.537
35.614,34.53
35.631,34.52
35.645,34.51
35.656,34.498
35.663,34.485
35.666,34.472
35.664,34.458
35.657,34.443
35.645,34.427
35.629,34.409
35.608,34.391
35.582,34.372
35.553,34.353
35.519,34.335
35.482,34.318
35.444,34.302
35.405,34.288
35.367,34.277
35.331,34.268
35.296,34.262
35.263,34.258
35.231,34.255
35.201,34.253
35.171,34.252
35.141,34.251
35.111,34.248
35.081,34.242
35.051,34.234
35.021,34.223
34.992,34.211
34.966,34.197
34.945,34.183
34.928,34.169
34.916,34.156
34.909,34.143
34.908,34.132
34.91,34.122
34.916,34.112
34.926,34.103
34.938,34.094
34.952,34.086
34.969,34.079
34.987,34.072
35.007,34.065
35.027,34.06
35.046,34.056
35.064,34.053
35.081,34.05
35.096,34.049
35.109,34.048
35.119,34.048
35.128,34.047
35.134,34.047
35.14,34.047
35.144,34.047
35.147,34.045
35.148,34.043
35.149,34.039
35.15,34.033
35.149,34.026
35.148,34.019
35.146,34.011
35.143,34.004
35.14,34
35.134,34
35.127,34.005
35.118,34.018
35.106,34.04
35.093,34.073
35.078,34.118
35.061,34.178
35.044,34.253
35.027,34.343
35.01,34.449
34.994,34.571
34.979,34.707
34.964,34.856
34.95,35.015
34.937,35.182
34.925,35.354
34.912,35.528
34.901,35.701
34.89,35.87
34.88,36.032
34.872,36.185
34.864,36.325
34.858,36.453
34.853,36.565
34.848,36.663
34.844,36.745
34.841,36.814
34.838,36.868
34.835,36.909
34.83,36.938
34.823,36.957
34.816,36.967
34.809,36.968
34.801,36.962
34.793,36.949
34.785,36.931
34.779,36.908
34.773,36.883
34.768,36.855
34.765,36.826
34.763,36.796
34.761,36.766
34.761,36.738
34.76,36.711
34.759,36.688
34.757,36.667
34.753,36.65
34.747,36.635
34.74,36.623
34.732,36.614
34.724,36.606
34.715,36.599
34.707,36.594
34.7,36.59
34.694,36.586
34.689,36.581
34.685,36.576
34.682,36.569
34.68,36.562
34.678,36.552
34.676,36.541
34.675,36.527
34.674,36.509
34.674,36.487
34.674,36.461
34.675,36.43
34.676,36.397
34.678,36.362
34.679,36.326
34.678,36.29
34.676,36.255
34.671,36.222
34.664,36.191
34.657,36.164
34.649,36.139
34.643,36.118
34.637,36.1
34.633,36.085
34.63,36.072
34.628,36.062
34.626,36.054
34.623,36.049
34.618,36.045
34.611,36.041
34.602,36.039
34.594,36.036
34.586,36.034
34.58,36.031
34.575,36.028
34.574,36.025
34.575,36.022
34.578,36.02
34.583,36.02
34.587,36.022
34.592,36.026
34.596,36.032
34.598,36.041
34.598,36.051
34.595,36.061
34.59,36.071
34.584,36.079
34.577,36.083
34.571,36.084
34.565,36.081
34.559,36.073
34.555,36.061
34.551,36.045
34.548,36.024
34.547,35.999
34.546,35.971
34.546,35.94
34.546,35.908
34.547,35.874
34.549,35.839
34.55,35.805
34.551,35.772
34.551,35.741
34.55,35.711
34.548,35.682
34.544,35.656
34.54,35.63
34.534,35.605
34.528,35.581
34.523,35.556
34.517,35.531
34.513,35.505
34.509,35.479
34.506,35.452
34.504,35.424
34.503,35.395
34.503,35.365
34.502,35.335
34.502,35.305
34.501,35.275
34.499,35.246
34.495,35.217
34.49,35.19
34.484,35.165
34.479,35.142
34.474,35.121
34.471,35.101
34.468,35.083
34.468,35.067
34.468,35.053
34.469,35.04
34.471,35.028
34.473,35.018
34.475,35.009
34.475,35
34.475,34.99
34.474,34.98
34.472,34.97
34.468,34.959
34.463,34.948
34.456,34.936
34.448,34.925
34.439,34.913
34.428,34.902
34.417,34.89
34.408,34.878
34.398,34.866
34.383,34.854
34.365,34.842
34.343,34.831
34.321,34.82
34.304,34.811
34.293,34.804
34.293,34.797
34.307,34.791
34.336,34.786
34.382,34.781
34.446,34.776
34.529,34.771
34.632,34.765
34.754,34.758
34.893,34.75
35.047,34.74
35.213,34.727
35.386,34.712
35.564,34.695
35.742,34.678
35.918,34.659
36.087,34.641
36.247,34.622
36.396,34.604
36.533,34.586
36.655,34.569
36.762,34.553
36.853,34.539
36.927,34.526
36.985,34.515
37.026,34.505
37.052,34.498
37.065,34.494
37.066,34.492
37.057,34.493
37.04,34.494
37.018,34.497
36.991,34.498
36.961,34.5
36.929,34.499
36.894,34.497
36.858,34.492
36.822,34.484
36.786,34.473
36.753,34.458
36.723,34.44
36.696,34.42
36.673,34.398
36.656,34.374
36.643,34.351
36.635,34.328
36.631,34.307
36.63,34.287
36.63,34.269
36.632,34.254
36.633,34.241
36.636,34.231
36.637,34.224
36.637,34.22
36.635,34.217
36.629,34.217
36.621,34.217
36.609,34.219
36.593,34.222
36.575,34.227
36.554,34.232
36.531,34.238
36.506,34.244
36.479,34.249
36.45,34.253
36.42,34.252
36.388,34.249
36.356,34.243
36.324,34.233
36.291,34.222
36.259,34.208
36.227,34.194
36.197,34.179
36.17,34.164
36.145,34.15
36.123,34.138
36.105,34.128
36.091,34.12
36.08,34.113
36.073,34.109
36.069,34.105
36.067,34.103
36.068,34.102
36.072,34.101
36.078,34.101
36.087,34.1
36.098,34.1
36.112,34.099
36.128,34.097
36.143,34.095
36.157,34.092
36.169,34.089
36.176,34.085
36.18,34.081
36.179,34.077
36.175,34.073
36.167,34.069
36.155,34.065
36.141,34.062
36.124,34.06
36.104,34.059
36.083,34.059
36.06,34.061
36.037,34.065
36.014,34.071
35.99,34.08
35.966,34.093
35.943,34.11
35.919,34.133
35.896,34.162
35.874,34.199
35.851,34.243
35.828,34.296
35.806,34.357
35.784,34.428
35.762,34.508
35.74,34.597
35.719,34.697
35.698,34.806
35.678,34.924
35.659,35.049
35.641,35.18
35.624,35.316
35.606,35.455
35.588,35.594
35.57,35.732
35.551,35.867
35.533,35.997
35.517,36.121
35.503,36.238
35.49,36.345
35.48,36.443
35.472,36.529
35.466,36.602
35.462,36.663
35.458,36.71
35.454,36.745
35.448,36.765
35.442,36.774
35.434,36.771
35.426,36.757
35.418,36.736
35.409,36.707
35.401,36.674
35.392,36.639
35.384,36.604
35.376,36.569
35.369,36.536
35.361,36.507
35.354,36.482
35.346,36.461
35.337,36.445
35.328,36.432
35.317,36.424
35.306,36.418
35.294,36.413
35.282,36.41
35.27,36.408
35.256,36.405
35.242,36.401
35.227,36.396
35.212,36.391
35.196,36.385
35.181,36.378
35.166,36.369
35.153,36.36
35.141,36.348
35.13,36.333
35.122,36.315
35.116,36.294
35.112,36.269
35.109,36.24
35.106,36.208
35.101,36.173
35.096,36.136
35.089,36.098
35.082,36.06
35.075,36.024
35.068,35.99
35.061,35.958
35.056,35.93
35.052,35.906
35.049,35.885
35.046,35.868
35.043,35.855
35.039,35.846
35.035,35.84
35.03,35.838
35.025,35.838
35.02,35.84
35.015,35.844
35.01,35.849
35.006,35.855
35.002,35.862
34.998,35.87
34.994,35.879
34.988,35.888
34.983,35.898
34.976,35.907
34.97,35.915
34.963,35.921
34.958,35.924
34.952,35.924
34.948,35.92
34.942,35.913
34.936,35.902
34.929,35.888
34.92,35.871
34.91,35.851
34.898,35.829
34.885,35.806
34.87,35.782
34.855,35.758
34.839,35.735
34.824,35.714
34.81,35.694
34.799,35.675
34.792,35.657
34.787,35.64
34.783,35.624
34.782,35.607
34.782,35.588
34.782,35.568
34.782,35.544
34.781,35.518
34.779,35.49
34.775,35.459
34.77,35.427
34.764,35.394
34.757,35.36
34.75,35.326
34.745,35.293
34.743,35.26
34.744,35.229
34.751,35.199
34.762,35.172
34.78,35.148
34.805,35.126
34.838,35.108
34.88,35.091
34.932,35.078
34.994,35.066
35.067,35.057
35.151,35.048
35.243,35.039
35.345,35.031
35.455,35.021
35.571,35.01
35.691,34.998
35.812,34.985
35.931,34.971
36.048,34.958
36.159,34.944
36.264,34.931
36.361,34.92
36.447,34.909
36.522,34.9
36.587,34.892
36.64,34.884
36.684,34.876
36.717,34.869
36.741,34.861
36.756,34.852
36.763,34.843
36.762,34.833
36.752,34.823
36.736,34.811
36.715,34.8
36.69,34.788
36.662,34.775
36.631,34.763
36.6,34.751
36.569,34.741
36.539,34.731
36.511,34.723
36.486,34.716
36.463,34.709
36.444,34.702
36.429,34.696
36.416,34.69
36.407,34.683
36.401,34.676
36.399,34.668
36.4,34.66
36.405,34.651
36.412,34.641
36.421,34.63
36.43,34.619
36.437,34.607
36.442,34.595
36.443,34.583
36.44,34.572
36.433,34.56
36.422,34.549
36.408,34.538
36.391,34.528
36.372,34.519
36.35,34.511
36.325,34.503
36.296,34.495
36.264,34.487
36.228,34.479
36.189,34.468
36.149,34.456
36.109,34.443
36.07,34.427
36.034,34.41
36.003,34.391
35.975,34.373
35.952,34.355
35.934,34.339
35.919,34.324
35.908,34.311
35.9,34.302
35.894,34.295
35.892,34.292
35.892,34.291
35.895,34.291
35.899,34.293
35.905,34.295
35.913,34.296
35.92,34.296
35.926,34.294
35.93,34.29
35.933,34.284
35.933,34.275
35.933,34.265
35.93,34.252
35.927,34.238
35.922,34.223
35.916,34.206
35.909,34.189
35.901,34.171
35.891,34.154
35.879,34.137
35.867,34.122
35.853,34.107
35.84,34.093
35.825,34.081
35.811,34.069
35.797,34.059
35.784,34.051
35.77,34.046
35.758,34.042
35.745,34.041
35.731,34.04
35.716,34.04
35.699,34.041
35.676,34.041
35.646,34.04
35.609,34.039
35.567,34.036
35.522,34.031
35.477,34.024
35.436,34.016
35.4,34.005
35.372,33.993
35.353,33.98
35.342,33.967
35.339,33.953
35.341,33.94
35.347,33.927
35.356,33.916
35.365,33.905
35.374,33.896
35.38,33.887
35.385,33.879
35.388,33.871
35.389,33.862
35.387,33.854
35.384,33.848
35.378,33.845
35.369,33.845
35.359,33.851
35.347,33.864
35.335,33.886
35.322,33.916
35.309,33.957
35.297,34.009
35.285,34.073
35.273,34.148
35.261,34.237
35.25,34.338
35.238,34.452
35.227,34.577
35.215,34.713
35.204,34.857
35.194,35.008
35.184,35.163
35.174,35.32
35.166,35.477
35.159,35.631
35.152,35.78
35.147,35.922
35.143,36.054
35.14,36.175
35.137,36.284
35.134,36.379
35.132,36.46
35.129,36.527
35.127,36.581
35.123,36.622
35.118,36.652
35.111,36.673
35.102,36.684
35.09,36.689
35.077,36.687
35.062,36.68
35.047,36.668
35.032,36.654
35.018,36.638
35.006,36.62
34.995,36.601
34.987,36.582
34.98,36.565
34.974,36.548
34.968,36.533
34.963,36.519
34.957,36.506
34.95,36.493
34.942,36.48
34.935,36.468
34.928,36.455
34.922,36.443
34.916,36.43
34.911,36.417
34.907,36.403
34.902,36.389
34.897,36.375
34.892,36.361
34.886,36.347
34.879,36.332
34.873,36.317
34.868,36.302
34.865,36.287
34.864,36.272
34.864,36.256
34.865,36.239
34.868,36.221
34.87,36.205
34.87,36.189
34.869,36.173
34.865,36.156
34.859,36.137
34.852,36.115
34.844,36.09
34.836,36.063
34.829,36.032
34.823,36
34.817,35.967
34.81,35.933
34.803,35.9
34.795,35.87
34.785,35.843
34.773,35.82
34.761,35.802
34.748,35.79
34.735,35.784
34.723,35.783
34.713,35.788
34.705,35.796
34.699,35.807
34.695,35.819
34.693,35.831
34.692,35.843
34.691,35.854
34.691,35.862
34.689,35.867
34.686,35.87
34.681,35.871
34.674,35.868
34.666,35.863
34.657,35.857
34.647,35.849
34.638,35.84
34.629,35.829
34.622,35.818
34.616,35.807
34.613,35.794
34.613,35.781
34.617,35.767
34.626,35.752
34.64,35.736
34.661,35.718
34.689,35.699
34.725,35.679
34.77,35.658
34.824,35.636
34.888,35.614
34.961,35.591
35.044,35.569
35.136,35.546
35.235,35.523
35.341,35.5
35.453,35.477
35.567,35.454
35.684,35.429
35.799,35.404
35.913,35.378
36.022,35.352
36.126,35.325
36.223,35.299
36.312,35.274
36.39,35.251
36.458,35.229
36.514,35.209
36.558,35.19
36.591,35.172
36.612,35.155
36.623,35.139
36.625,35.123
36.619,35.106
36.606,35.09
36.589,35.073
36.568,35.055
36.547,35.037
36.525,35.016
36.503,34.995
36.483,34.972
36.464,34.949
36.448,34.926
36.432,34.903
36.418,34.88
36.404,34.858
36.392,34.838
36.38,34.82
36.371,34.805
36.363,34.792
36.359,34.783
36.357,34.775
36.357,34.77
36.359,34.767
36.361,34.764
36.362,34.762
36.363,34.761
36.361,34.76
36.358,34.759
36.352,34.758
36.345,34.756
36.335,34.753
36.324,34.748
36.311,34.74
36.297,34.729
36.282,34.715
36.264,34.699
36.245,34.681
36.224,34.662
36.201,34.644
36.176,34.626
36.149,34.61
36.121,34.597
36.092,34.587
36.065,34.58
36.039,34.574
36.014,34.571
35.989,34.571
35.966,34.571
35.946,34.572
35.927,34.574
35.911,34.576
35.897,34.577
35.886,34.576
35.878,34.574
35.873,34.57
35.871,34.564
35.87,34.556
35.87,34.545
35.872,34.533
35.875,34.519
35.877,34.502
35.88,34.483
35.882,34.462
35.882,34.44
35.882,34.418
35.881,34.397
35.879,34.377
35.878,34.36
35.875,34.345
35.872,34.334
35.866,34.325
35.858,34.319
35.848,34.315
35.835,34.312
35.82,34.31
35.804,34.309
35.787,34.308
35.77,34.307
35.754,34.306
35.739,34.303
35.725,34.3
35.713,34.295
35.702,34.29
35.691,34.285
35.681,34.279
35.67,34.274
35.658,34.269
35.645,34.265
35.631,34.261
35.616,34.256
35.6,34.25
35.582,34.243
35.563,34.234
35.544,34.224
35.524,34.212
35.504,34.197
35.484,34.181
35.465,34.164
35.447,34.147
35.431,34.131
35.417,34.117
35.406,34.104
35.399,34.093
35.396,34.084
35.397,34.077
35.4,34.072
35.404,34.069
35.406,34.066
35.407,34.064
35.405,34.062
35.399,34.06
35.39,34.056
35.377,34.051
35.36,34.045
35.341,34.038
35.32,34.03
35.297,34.022
35.273,34.015
35.249,34.009
35.225,34.004
35.202,34.002
35.181,34.003
35.163,34.008
35.148,34.02
35.136,34.039
35.126,34.066
35.118,34.104
35.112,34.153
35.107,34.213
35.103,34.285
35.1,34.37
35.096,34.467
35.093,34.575
35.089,34.693
35.084,34.819
35.078,34.951
35.072,35.09
35.066,35.235
35.059,35.384
35.051,35.533
35.043,35.68
35.035,35.822
35.028,35.956
35.02,36.079
35.013,36.189
35.006,36.286
35.003,36.369
35.003,36.438
35.007,36.493
35.013,36.534
35.02,36.562
35.027,36.579
35.031,36.586
35.032,36.583
35.029,36.573
35.022,36.558
35.012,36.537
35,36.511
34.986,36.483
34.97,36.453
34.953,36.421
34.936,36.388
34.918,36.356
34.901,36.324
34.884,36.294
34.868,36.266
34.854,36.241
34.84,36.219
34.828,36.201
34.817,36.185
34.809,36.171
34.802,36.159
34.796,36.149
34.792,36.14
34.789,36.134
34.787,36.129
34.785,36.125
34.782,36.122
34.779,36.119
34.776,36.116
34.772,36.112
34.769,36.107
34.766,36.099
34.764,36.09
34.762,36.077
34.761,36.061
34.759,36.041
34.757,36.017
34.753,35.989
34.747,35.959
34.74,35.926
34.732,35.891
34.724,35.856
34.716,35.822
34.709,35.79
34.702,35.759
34.696,35.732
34.691,35.708
34.684,35.688
34.677,35.671
34.668,35.657
34.658,35.648
34.648,35.641
34.637,35.636
34.626,35.634
34.615,35.633
34.606,35.634
34.598,35.634
34.593,35.636
34.59,35.637
34.589,35.64
34.589,35.643
34.59,35.647
34.591,35.65
34.592,35.654
34.591,35.657
34.589,35.659
34.586,35.661
34.582,35.663
34.577,35.663
34.572,35.662
34.566,35.66
34.562,35.655
34.559,35.648
34.557,35.637
34.558,35.623
34.563,35.607
34.57,35.588
34.582,35.567
34.599,35.545
34.62,35.522
34.647,35.499
34.682,35.476
34.727,35.455
34.782,35.435
34.852,35.416
34.934,35.399
35.03,35.383
35.136,35.368
35.249,35.352
35.368,35.338
35.488,35.331
35.607,35.33
35.722,35.335
35.83,35.343
35.93,35.35
36.019,35.354
36.098,35.351
36.165,35.339
36.222,35.317
36.268,35.286
36.303,35.247
36.329,35.202
36.346,35.152
36.355,35.101
36.358,35.051
36.355,35.002
36.348,34.957
36.339,34.918
36.326,34.884
36.312,34.855
36.298,34.833
36.282,34.817
36.267,34.807
36.251,34.802
36.236,34.801
36.222,34.803
36.208,34.807
36.196,34.812
36.185,34.816
36.176,34.82
36.17,34.822
36.166,34.822
36.163,34.822
36.162,34.821
36.161,34.822
36.16,34.823
36.159,34.825
36.158,34.826
36.155,34.826
36.152,34.823
36.146,34.818
36.139,34.81
36.13,34.799
36.118,34.783
36.105,34.764
36.088,34.743
36.07,34.719
36.05,34.694
36.029,34.668
36.007,34.642
35.984,34.617
35.961,34.592
35.937,34.569
35.913,34.548
35.888,34.528
35.863,34.51
35.837,34.494
35.812,34.478
35.789,34.463
35.768,34.449
35.749,34.435
35.734,34.42
35.721,34.405
35.711,34.391
35.702,34.377
35.696,34.365
35.691,34.354
35.69,34.345
35.691,34.337
35.694,34.332
35.701,34.329
35.71,34.328
35.722,34.329
35.735,34.331
35.749,34.335
35.763,34.34
35.776,34.344
35.787,34.349
35.795,34.352
35.8,34.353
35.803,34.353
35.803,34.35
35.802,34.346
35.799,34.34
35.795,34.333
35.789,34.325
35.781,34.316
35.773,34.307
35.763,34.297
35.751,34.288
35.739,34.279
35.725,34.271
35.71,34.264
35.692,34.259
35.672,34.255
35.651,34.253
35.627,34.252
35.603,34.254
35.576,34.257
35.548,34.262
35.518,34.267
35.486,34.272
35.455,34.276
35.425,34.278
35.397,34.275
35.372,34.266
35.351,34.251
35.333,34.229
35.319,34.204
35.307,34.175
35.298,34.145
35.291,34.116
35.284,34.09
35.277,34.067
35.268,34.048
35.259,34.034
35.248,34.025
35.237,34.02
35.227,34.02
35.216,34.024
35.206,34.032
35.196,34.044
35.186,34.058
35.177,34.074
35.169,34.091
35.162,34.107
35.155,34.122
35.148,34.134
35.141,34.144
35.132,34.149
35.122,34.151
35.111,34.149
35.1,34.144
35.088,34.137
35.078,34.128
35.068,34.118
35.06,34.107
35.054,34.096
35.049,34.084
35.046,34.072
35.044,34.059
35.043,34.048
35.042,34.037
35.042,34.029
35.043,34.022
35.045,34.017
35.048,34.012
35.052,34.009
35.057,34.007
35.062,34.004
35.068,34.002
35.076,34
35.085,33.998
35.096,33.997
35.108,33.996
35.121,33.995
35.134,33.994
35.146,33.993
35.157,33.993
35.165,33.993
35.169,33.994
35.17,33.995
35.167,33.996
35.159,33.997
35.147,33.998
35.132,33.998
35.113,33.999
35.092,33.998
35.07,33.996
35.047,33.994
35.025,33.991
35.001,33.987
34.977,33.984
34.953,33.981
34.928,33.981
34.904,33.983
34.88,33.986
34.857,33.99
34.834,33.995
34.813,33.999
34.794,34.003
34.775,34.005
34.758,34.006
34.741,34.006
34.725,34.005
34.71,34.002
34.697,33.999
34.686,33.994
34.677,33.987
34.672,33.98
34.67,33.97
34.67,33.959
34.674,33.946
34.68,33.932
34.687,33.917
34.694,33.902
34.702,33.886
34.709,33.871
34.716,33.856
34.722,33.842
34.727,33.831
34.731,33.823
34.734,33.818
34.736,33.815
34.739,33.815
34.74,33.817
34.741,33.822
34.74,33.828
34.737,33.839
34.732,33.857
34.726,33.886
34.72,33.924
34.713,33.966
34.706,34.01
34.703,34.051
34.706,34.086
34.716,34.113
34.731,34.129
34.748,34.134
34.766,34.128
34.781,34.111
34.792,34.084
34.798,34.051
34.799,34.012
34.795,33.971
34.787,33.929
34.775,33.889
34.758,33.853
34.738,33.82
34.714,33.793
34.687,33.772
34.657,33.756
34.625,33.746
34.593,33.742
34.561,33.742
34.532,33.746
34.505,33.753
34.482,33.762
34.464,33.773
34.452,33.783
34.446,33.794
34.444,33.804
34.447,33.813
34.453,33.82
34.46,33.828
34.469,33.837
34.476,33.846
34.483,33.855
34.488,33.864
34.492,33.871
34.493,33.876
34.494,33.878
34.494,33.877
34.493,33.873
34.493,33.866
34.492,33.857
34.492,33.845
34.492,33.832
34.492,33.818
34.492,33.803
34.493,33.788
34.492,33.773
34.491,33.757
34.487,33.742
34.481,33.729
34.474,33.717
34.466,33.707
34.458,33.7
34.45,33.698
34.442,33.7
34.434,33.707
34.427,33.721
34.421,33.743
34.415,33.774
34.41,33.814
34.405,33.866
34.4,33.929
34.396,34.003
34.393,34.085
34.391,34.175
34.39,34.275
34.39,34.386
34.392,34.511
34.394,34.651
34.396,34.807
34.398,34.978
34.398,35.163
34.396,35.359
34.394,35.562
34.391,35.769
34.388,35.976
34.384,36.177
34.381,36.369
34.378,36.547
34.376,36.709
34.374,36.851
34.372,36.972
34.37,37.071
34.368,37.147
34.366,37.2
34.364,37.232
34.361,37.244
34.357,37.239
34.351,37.218
34.342,37.185
34.332,37.143
34.321,37.094
34.309,37.04
34.298,36.986
34.288,36.931
34.28,36.878
34.275,36.827
34.273,36.779
34.276,36.735
34.282,36.693
34.293,36.654
34.305,36.618
34.319,36.585
34.333,36.554
34.344,36.527
34.353,36.504
34.359,36.485
34.362,36.471
34.363,36.461
34.361,36.455
34.358,36.453
34.353,36.455
34.349,36.458
34.346,36.463
34.344,36.469
34.342,36.474
34.341,36.478
34.339,36.479
34.336,36.478
34.331,36.473
34.325,36.464
34.318,36.451
34.312,36.433
34.306,36.412
34.302,36.388
34.3,36.361
34.298,36.331
34.297,36.3
34.297,36.268
34.296,36.235
34.296,36.203
34.294,36.171
34.29,36.14
34.284,36.112
34.277,36.086
34.27,36.065
34.263,36.048
34.257,36.036
34.253,36.028
34.251,36.025
34.252,36.025
34.254,36.029
34.257,36.035
34.261,36.044
34.265,36.055
34.269,36.065
34.272,36.074
34.274,36.081
34.277,36.085
34.281,36.087
34.285,36.086
34.29,36.081
34.295,36.074
34.301,36.065
34.306,36.053
34.31,36.04
34.312,36.027
34.314,36.013
34.313,35.999
34.311,35.984
34.307,35.969
34.302,35.954
34.296,35.938
34.29,35.921
34.283,35.903
34.277,35.884
34.271,35.864
34.265,35.843
34.26,35.821
34.255,35.797
34.251,35.771
34.248,35.745
34.246,35.718
34.245,35.691
34.247,35.665
34.252,35.64
34.264,35.616
34.283,35.592
34.312,35.568
34.353,35.545
34.407,35.52
34.476,35.495
34.561,35.468
34.663,35.44
34.782,35.41
34.915,35.378
35.061,35.347
35.217,35.315
35.38,35.284
35.547,35.254
35.715,35.225
35.879,35.198
36.037,35.173
36.184,35.151
36.316,35.132
36.433,35.117
36.532,35.106
36.612,35.098
36.673,35.093
36.715,35.091
36.74,35.091
36.749,35.092
36.746,35.095
36.731,35.097
36.706,35.098
36.673,35.098
36.636,35.096
36.594,35.092
36.549,35.085
36.504,35.077
36.459,35.067
36.416,35.056
36.376,35.045
36.34,35.037
36.307,35.032
36.28,35.032
36.258,35.038
36.241,35.051
36.23,35.072
36.225,35.101
36.224,35.138
36.227,35.182
36.233,35.233
36.242,35.288
36.252,35.348
36.262,35.411
36.271,35.475
36.277,35.538
36.282,35.6
36.283,35.658
36.283,35.712
36.28,35.761
36.276,35.805
36.27,35.842
36.262,35.874
36.252,35.899
36.239,35.917
36.222,35.931
36.201,35.938
36.177,35.941
36.149,35.939
36.118,35.933
36.084,35.921
36.049,35.903
36.014,35.879
35.98,35.849
35.947,35.813
35.916,35.772
35.887,35.728
35.859,35.681
35.834,35.633
35.81,35.584
35.789,35.534
35.77,35.484
35.753,35.434
35.74,35.385
35.731,35.337
35.727,35.289
35.727,35.243
35.731,35.196
35.736,35.151
35.743,35.106
35.75,35.062
35.756,35.018
35.761,34.976
35.765,34.936
35.768,34.897
35.77,34.861
35.771,34.827
35.771,34.797
35.77,34.77
35.767,34.748
35.762,34.729
35.755,34.715
35.745,34.705
35.732,34.699
35.717,34.699
35.7,34.702
35.683,34.71
35.665,34.721
35.647,34.735
35.63,34.751
35.613,34.77
35.599,34.789
35.585,34.809
35.571,34.829
35.557,34.85
35.543,34.87
35.528,34.89
35.514,34.909
35.499,34.927
35.483,34.944
35.468,34.959
35.453,34.973
35.439,34.986
35.425,34.996
35.412,35.004
35.399,35.009
35.385,35.011
35.371,35.01
35.358,35.005
35.344,34.998
35.331,34.987
35.318,34.973
35.305,34.958
35.292,34.94
35.277,34.921
35.262,34.901
35.246,34.88
35.23,34.86
35.214,34.84
35.2,34.822
35.186,34.805
35.173,34.791
35.162,34.779
35.151,34.768
35.141,34.76
35.132,34.752
35.124,34.745
35.117,34.737
35.111,34.729
35.105,34.72
35.099,34.709
35.094,34.698
35.089,34.685
35.083,34.671
35.077,34.656
35.072,34.64
35.066,34.623
35.061,34.605
35.057,34.586
35.054,34.568
35.053,34.55
35.053,34.533
35.053,34.517
35.053,34.504
35.054,34.492
35.053,34.482
35.051,34.472
35.047,34.465
35.042,34.458
35.034,34.453
35.025,34.45
35.014,34.447
35.002,34.445
34.99,34.444
34.978,34.442
34.966,34.44
34.956,34.437
34.947,34.435
34.941,34.435
34.936,34.437
34.932,34.44
34.929,34.445
34.927,34.449
34.924,34.451
34.921,34.452
34.915,34.451
34.908,34.446
34.9,34.44
34.89,34.431
34.88,34.42
34.87,34.407
34.859,34.392
34.851,34.377
34.843,34.36
34.838,34.343
34.832,34.326
34.828,34.31
34.823,34.296
34.818,34.283
34.813,34.271
34.807,34.261
34.8,34.253
34.794,34.247
34.789,34.243
34.782,34.24
34.775,34.238
34.768,34.238
34.76,34.238
34.751,34.238
34.742,34.239
34.731,34.239
34.719,34.24
34.706,34.239
34.695,34.238
34.685,34.235
34.677,34.231
34.671,34.226
34.667,34.219
34.664,34.212
34.662,34.206
34.66,34.199
34.658,34.194
34.654,34.188
34.652,34.185
34.65,34.182
34.649,34.18
34.649,34.18
34.65,34.179
34.653,34.18
34.657,34.18
34.66,34.179
34.661,34.177
34.661,34.175
34.659,34.17
34.654,34.164
34.646,34.156
34.636,34.146
34.624,34.135
34.61,34.123
34.596,34.11
34.582,34.098
34.569,34.086
34.559,34.077
34.551,34.071
34.546,34.068
34.543,34.069
34.542,34.072
34.543,34.078
34.545,34.087
34.548,34.098
34.551,34.11
34.555,34.122
34.558,34.134
34.561,34.146
34.563,34.155
34.563,34.163
34.562,34.169
34.56,34.172
34.556,34.172
34.552,34.17
34.547,34.166
34.542,34.16
34.537,34.153
34.534,34.144
34.532,34.135
34.531,34.125
34.532,34.115
34.536,34.106
34.544,34.098
34.558,34.091
34.578,34.085
34.607,34.079
34.646,34.076
34.695,34.073
34.756,34.073
34.83,34.073
34.917,34.073
35.016,34.074
35.127,34.074
35.248,34.074
35.377,34.073
35.511,34.07
35.648,34.066
35.783,34.06
35.914,34.052
36.038,34.042
36.153,34.031
36.256,34.019
36.347,34.008
36.423,33.998
36.487,33.991
36.536,33.987
36.573,33.989
36.597,33.998
36.611,34.015
36.616,34.041
36.612,34.077
36.6,34.124
36.582,34.183
36.558,34.254
36.531,34.338
36.5,34.436
36.469,34.55
36.436,34.677
36.404,34.818
36.373,34.973
36.342,35.137
36.307,35.31
36.267,35.488
36.225,35.669
36.182,35.848
36.141,36.024
36.104,36.192
36.073,36.349
36.05,36.493
36.035,36.621
36.03,36.732
36.034,36.826
36.046,36.902
36.066,36.96
36.091,37.002
36.121,37.028
36.152,37.039
36.184,37.038
36.213,37.026
36.237,37.006
36.254,36.978
36.264,36.944
36.266,36.907
36.26,36.866
36.248,36.824
36.229,36.782
36.206,36.742
36.177,36.704
36.145,36.668
36.11,36.636
36.072,36.608
36.034,36.584
35.994,36.564
35.955,36.547
35.918,36.533
35.883,36.522
35.85,36.514
35.822,36.507
35.797,36.501
35.777,36.495
35.76,36.489
35.747,36.48
35.737,36.469
35.728,36.455
35.723,36.437
35.719,36.416
35.717,36.391
35.716,36.363
35.716,36.333
35.718,36.301
35.721,36.269
35.725,36.238
35.728,36.21
35.731,36.184
35.734,36.16
35.737,36.138
35.739,36.119
35.741,36.102
35.743,36.087
35.745,36.071
35.747,36.055
35.748,36.038
35.748,36.021
35.746,36.005
35.741,35.992
35.733,35.98
35.722,35.972
35.707,35.968
35.691,35.967
35.673,35.97
35.654,35.977
35.634,35.989
35.614,36.004
35.592,36.022
35.57,36.043
35.548,36.066
35.525,36.089
35.502,36.113
35.48,36.135
35.458,36.157
35.436,36.176
35.416,36.193
35.396,36.206
35.379,36.216
35.362,36.222
35.347,36.224
35.333,36.221
35.32,36.213
35.307,36.201
35.293,36.187
35.28,36.169
35.266,36.148
35.251,36.12
35.237,36.086
35.223,36.047
35.21,36.007
35.199,35.966
35.189,35.927
35.181,35.89
35.176,35.858
35.172,35.829
35.171,35.804
35.17,35.782
35.17,35.765
35.17,35.751
35.169,35.739
35.168,35.73
35.165,35.721
35.163,35.714
35.161,35.707
35.158,35.699
35.154,35.689
35.149,35.677
35.145,35.662
35.14,35.646
35.135,35.627
35.13,35.607
35.125,35.586
35.119,35.565
35.112,35.543
35.105,35.522
35.097,35.502
35.088,35.482
35.078,35.463
35.067,35.446
35.055,35.429
35.041,35.413
35.028,35.398
35.014,35.385
35.001,35.371
34.988,35.358
34.977,35.343
34.967,35.328
34.959,35.313
34.952,35.299
34.946,35.285
34.941,35.272
34.937,35.262
34.933,35.254
34.93,35.25
34.926,35.248
34.923,35.25
34.92,35.254
34.918,35.261
34.916,35.269
34.915,35.279
34.914,35.292
34.914,35.307
34.913,35.324
34.91,35.342
34.907,35.363
34.902,35.386
34.896,35.411
34.888,35.44
34.878,35.472
34.868,35.508
34.857,35.548
34.847,35.593
34.836,35.644
34.826,35.7
34.815,35.762
34.804,35.829
34.793,35.9
34.783,35.975
34.775,36.051
34.768,36.127
34.762,36.202
34.758,36.275
34.756,36.344
34.755,36.409
34.754,36.467
34.753,36.518
34.753,36.561
34.751,36.596
34.748,36.623
34.743,36.643
34.738,36.654
34.733,36.66
34.727,36.659
34.722,36.655
34.717,36.648
34.713,36.639
34.708,36.629
34.704,36.617
34.7,36.606
34.696,36.594
34.691,36.582
34.686,36.569
34.679,36.556
34.673,36.54
34.667,36.522
34.662,36.502
34.658,36.478
34.655,36.451
34.653,36.421
34.652,36.386
34.651,36.349
34.651,36.308
34.651,36.265
34.652,36.221
34.653,36.176
34.654,36.131
34.656,36.087
34.656,36.046
34.657,36.007
34.657,35.972
34.655,35.94
34.653,35.911
34.647,35.886
34.639,35.863
34.628,35.844
34.615,35.827
34.6,35.812
34.583,35.8
34.566,35.79
34.549,35.782
34.534,35.775
34.52,35.771
34.51,35.77
34.501,35.77
34.493,35.774
34.488,35.78
34.484,35.788
34.482,35.799
34.481,35.811
34.484,35.826
34.49,35.84
34.5,35.855
34.514,35.87
34.534,35.883
34.561,35.896
34.595,35.906
34.639,35.915
34.693,35.921
34.758,35.924
34.834,35.925
34.922,35.924
35.02,35.921
35.128,35.916
35.245,35.909
35.369,35.9
35.497,35.888
35.628,35.873
35.759,35.856
35.887,35.837
36.012,35.817
36.13,35.796
36.239,35.775
36.337,35.753
36.424,35.731
36.499,35.709
36.56,35.688
36.608,35.667
36.643,35.646
36.664,35.625
36.674,35.603
36.673,35.581
36.663,35.559
36.645,35.537
36.62,35.515
36.59,35.494
36.558,35.473
36.524,35.452
36.492,35.433
36.461,35.414
36.432,35.396
36.407,35.379
36.384,35.365
36.365,35.353
36.35,35.342
36.338,35.335
36.329,35.329
36.324,35.325
36.32,35.322
36.318,35.318
36.317,35.314
36.317,35.309
36.318,35.302
36.319,35.294
36.32,35.284
36.321,35.27
36.321,35.252
36.32,35.23
36.318,35.205
36.315,35.178
36.31,35.151
36.303,35.125
36.292,35.1
36.276,35.079
36.256,35.062
36.231,35.049
36.203,35.04
36.172,35.036
36.139,35.037
36.105,35.041
36.073,35.048
36.041,35.056
36.011,35.065
35.983,35.073
35.956,35.08
35.93,35.085
35.906,35.088
35.882,35.088
35.86,35.086
35.839,35.081
35.822,35.073
35.808,35.064
35.797,35.053
35.789,35.04
35.784,35.026
35.78,35.011
35.778,34.997
35.776,34.983
35.775,34.971
35.773,34.96
35.773,34.951
35.775,34.946
35.778,34.943
35.783,34.943
35.79,34.946
35.797,34.949
35.805,34.953
35.811,34.956
35.816,34.957
35.817,34.956
35.816,34.953
35.812,34.947
35.805,34.938
35.796,34.927
35.786,34.915
35.774,34.901
35.762,34.887
35.748,34.873
35.735,34.859
35.721,34.845
35.707,34.831
35.693,34.818
35.679,34.805
35.666,34.793
35.652,34.782
35.64,34.772
35.63,34.763
35.621,34.754
35.613,34.746
35.606,34.737
35.601,34.728
35.596,34.719
35.592,34.709
35.588,34.699
35.583,34.689
35.579,34.68
35.573,34.671
35.567,34.662
35.56,34.652
35.553,34.643
35.546,34.633
35.538,34.623
35.529,34.613
35.519,34.603
35.508,34.594
35.497,34.586
35.484,34.58
35.47,34.574
35.456,34.57
35.441,34.566
35.425,34.564
35.411,34.562
35.396,34.562
35.383,34.563
35.37,34.565
35.358,34.567
35.347,34.569
35.336,34.57
35.325,34.571
35.315,34.57
35.305,34.568
35.296,34.564
35.285,34.556
35.274,34.546
35.262,34.534
35.25,34.519
35.237,34.503
35.224,34.487
35.21,34.469
35.196,34.452
35.18,34.437
35.163,34.425
35.146,34.415
35.128,34.408
35.112,34.403
35.097,34.402
35.082,34.405
35.07,34.412
35.058,34.421
35.047,34.433
35.037,34.445
35.027,34.458
35.017,34.471
35.006,34.482
34.996,34.491
34.987,34.497
34.98,34.5
34.974,34.499
34.969,34.495
34.963,34.488
34.957,34.478
34.949,34.467
34.939,34.453
34.928,34.438
34.916,34.422
34.904,34.407
34.893,34.392
34.881,34.378
34.87,34.366
34.859,34.355
34.849,34.345
34.84,34.337
34.83,34.329
34.82,34.323
34.809,34.318
34.797,34.315
34.786,34.312
34.774,34.31
34.763,34.309
34.753,34.31
34.742,34.311
34.733,34.314
34.723,34.317
34.713,34.322
34.702,34.328
34.69,34.337
34.678,34.348
34.666,34.365
34.656,34.388
34.647,34.42
34.641,34.462
34.637,34.517
34.636,34.585
34.64,34.669
34.649,34.77
34.663,34.887
34.681,35.021
34.701,35.169
34.721,35.33
34.739,35.502
34.752,35.68
34.761,35.861
34.766,36.043
34.766,36.223
34.763,36.397
34.756,36.564
34.745,36.72
34.73,36.864
34.711,36.995
34.688,37.111
34.662,37.212
34.635,37.296
34.606,37.365
34.579,37.418
34.553,37.457
34.53,37.482
34.511,37.496
34.496,37.5
34.484,37.496
34.477,37.487
34.472,37.474
34.471,37.457
34.472,37.437
34.475,37.417
34.478,37.395
34.482,37.372
34.486,37.35
34.489,37.33
34.49,37.311
34.49,37.295
34.488,37.282
34.485,37.271
34.481,37.264
34.477,37.26
34.473,37.261
34.468,37.266
34.464,37.275
34.459,37.287
34.453,37.302
34.448,37.319
34.442,37.337
34.437,37.355
34.432,37.37
34.426,37.383
34.42,37.391
34.416,37.394
34.413,37.391
34.411,37.382
34.413,37.366
34.418,37.344
34.428,37.317
34.446,37.283
34.471,37.245
34.505,37.203
34.549,37.16
34.605,37.115
34.672,37.071
34.752,37.027
34.844,36.983
34.946,36.942
35.058,36.903
35.179,36.867
35.306,36.836
35.437,36.809
35.571,36.786
35.705,36.767
35.837,36.751
35.964,36.738
36.083,36.729
36.194,36.722
36.294,36.718
36.382,36.716
36.457,36.715
36.519,36.716
36.567,36.717
36.601,36.72
36.623,36.722
36.633,36.725
36.633,36.726
36.624,36.727
36.606,36.727
36.583,36.726
36.554,36.723
36.523,36.719
36.491,36.713
36.459,36.707
36.428,36.699
36.402,36.691
36.379,36.682
36.361,36.672
36.348,36.661
36.34,36.649
36.337,36.637
36.339,36.625
36.344,36.611
36.352,36.596
36.364,36.578
36.377,36.558
36.391,36.537
36.406,36.513
36.422,36.489
36.437,36.464
36.45,36.439
36.461,36.414
36.468,36.39
36.473,36.367
36.474,36.344
36.472,36.322
36.466,36.299
36.458,36.276
36.446,36.252
36.432,36.228
36.414,36.204
36.392,36.179
36.367,36.154
36.339,36.129
36.307,36.104
36.273,36.08
36.236,36.057
36.199,36.035
36.161,36.015
36.124,35.997
36.091,35.981
36.061,35.966
36.033,35.953
36.008,35.942
35.984,35.931
35.962,35.921
35.942,35.909
35.925,35.895
35.91,35.878
35.899,35.859
35.893,35.838
35.891,35.817
35.893,35.796
35.9,35.775
35.91,35.756
35.924,35.74
35.938,35.726
35.952,35.715
35.965,35.707
35.976,35.701
35.985,35.697
35.992,35.694
35.997,35.691
35.999,35.688
35.999,35.682
35.996,35.673
35.991,35.662
35.983,35.647
35.972,35.628
35.959,35.607
35.945,35.584
35.929,35.559
35.912,35.533
35.894,35.508
35.877,35.485
35.86,35.464
35.843,35.445
35.827,35.429
35.812,35.416
35.795,35.406
35.778,35.399
35.759,35.394
35.737,35.392
35.712,35.39
35.684,35.389
35.655,35.387
35.625,35.382
35.596,35.373
35.569,35.36
35.544,35.344
35.522,35.323
35.504,35.301
35.49,35.276
35.48,35.25
35.473,35.222
35.47,35.195
35.469,35.169
35.469,35.146
35.47,35.126
35.47,35.111
35.469,35.1
35.468,35.094
35.466,35.092
35.462,35.093
35.457,35.096
35.45,35.101
35.442,35.106
35.432,35.111
35.421,35.114
35.407,35.115
35.393,35.114
35.377,35.111
35.361,35.105
35.344,35.097
35.327,35.086
35.311,35.075
35.297,35.062
35.283,35.049
35.271,35.036
35.261,35.019
35.253,34.997
35.247,34.968
35.243,34.936
35.241,34.901
35.239,34.866
35.24,34.832
35.241,34.8
35.243,34.773
35.244,34.751
35.245,34.734
35.245,34.723
35.244,34.717
35.242,34.715
35.238,34.716
35.234,34.72
35.227,34.724
35.219,34.73
35.209,34.734
35.197,34.738
35.183,34.741
35.168,34.743
35.152,34.743
35.135,34.741
35.12,34.737
35.105,34.732
35.093,34.725
35.082,34.716
35.074,34.706
35.068,34.696
35.062,34.685
35.057,34.673
35.051,34.663
35.045,34.654
35.037,34.648
35.029,34.645
35.022,34.647
35.015,34.653
35.009,34.663
35.004,34.678
35.001,34.699
34.999,34.727
34.998,34.763
34.996,34.808
34.994,34.862
34.989,34.927
34.983,35.002
34.975,35.085
34.965,35.177
34.953,35.277
34.941,35.382
34.927,35.494
34.91,35.609
34.892,35.729
34.873,35.85
34.853,35.972
34.834,36.093
34.816,36.211
34.8,36.325
34.786,36.434
34.774,36.535
34.766,36.628
34.762,36.711
34.761,36.784
34.763,36.847
34.769,36.897
34.776,36.937
34.784,36.966
34.793,36.984
34.8,36.994
34.806,36.997
34.81,36.993
34.813,36.985
34.815,36.975
34.815,36.964
34.815,36.953
34.814,36.943
34.811,36.935
34.808,36.928
34.802,36.921
34.796,36.914
34.788,36.906
34.78,36.899
34.771,36.891
34.764,36.883
34.757,36.875
34.751,36.867
34.747,36.859
34.743,36.85
34.741,36.842
34.739,36.835
34.737,36.828
34.735,36.821
34.733,36.813
34.732,36.805
34.729,36.796
34.726,36.785
34.721,36.772
34.714,36.755
34.706,36.734
34.698,36.71
34.688,36.681
34.677,36.649
34.666,36.614
34.655,36.576
34.644,36.536
34.635,36.495
34.628,36.453
34.623,36.414
34.62,36.376
34.618,36.342
34.618,36.312
34.619,36.286
34.62,36.265
34.621,36.249
34.621,36.238
34.621,36.231
34.619,36.226
34.616,36.224
34.612,36.224
34.609,36.225
34.606,36.228
34.606,36.232
34.608,36.236
34.615,36.241
34.626,36.247
34.644,36.253
34.67,36.258
34.705,36.263
34.751,36.268
34.809,36.271
34.879,36.273
34.963,36.272
35.058,36.27
35.164,36.265
35.278,36.257
35.4,36.246
35.526,36.231
35.655,36.214
35.783,36.193
35.91,36.17
36.032,36.146
36.149,36.12
36.259,36.095
36.36,36.07
36.453,36.045
36.535,36.022
36.606,35.999
36.666,35.976
36.713,35.954
36.748,35.933
36.77,35.911
36.78,35.891
36.777,35.87
36.765,35.851
36.744,35.831
36.716,35.812
36.685,35.793
36.652,35.775
36.619,35.758
36.587,35.741
36.558,35.726
36.531,35.711
36.507,35.696
36.485,35.682
36.465,35.667
36.446,35.651
36.429,35.634
36.414,35.617
36.402,35.598
36.392,35.579
36.385,35.559
36.381,35.54
36.381,35.52
36.384,35.501
36.387,35.483
36.392,35.466
36.395,35.45
36.398,35.435
36.399,35.422
36.4,35.411
36.399,35.401
36.395,35.393
36.388,35.387
36.377,35.382
36.361,35.377
36.341,35.373
36.317,35.369
36.288,35.365
36.255,35.36
36.22,35.352
36.184,35.342
36.147,35.33
36.111,35.316
36.077,35.3
36.044,35.282
36.013,35.264
35.982,35.247
35.952,35.229
35.923,35.213
35.896,35.198
35.872,35.185
35.851,35.174
35.834,35.165
35.821,35.158
35.814,35.153
35.811,35.15
35.813,35.149
35.82,35.149
35.83,35.149
35.842,35.149
35.855,35.148
35.869,35.146
35.883,35.142
35.896,35.136
35.909,35.128
35.921,35.118
35.931,35.105
35.939,35.092
35.946,35.077
35.95,35.06
35.952,35.042
35.952,35.023
35.95,35.003
35.946,34.983
35.94,34.962
35.931,34.94
35.919,34.918
35.904,34.897
35.887,34.878
35.868,34.86
35.848,34.845
35.827,34.832
35.805,34.821
35.781,34.813
35.757,34.808
35.732,34.804
35.706,34.801
35.681,34.8
35.656,34.801
35.632,34.802
35.61,34.804
35.59,34.806
35.572,34.808
35.555,34.808
35.54,34.807
35.527,34.804
35.514,34.799
35.503,34.791
35.491,34.781
35.479,34.768
35.467,34.754
35.455,34.738
35.442,34.722
35.43,34.705
35.418,34.689
35.405,34.674
35.392,34.66
35.379,34.647
35.365,34.637
35.353,34.628
35.341,34.621
35.329,34.617
35.317,34.614
35.304,34.613
35.29,34.612
35.275,34.609
35.259,34.604
35.243,34.597
35.228,34.587
35.214,34.574
35.202,34.561
35.192,34.546
35.184,34.533
35.179,34.52
35.177,34.509
35.177,34.501
35.178,34.495
35.18,34.492
35.181,34.492
35.182,34.493
35.181,34.496
35.179,34.5
35.175,34.504
35.17,34.507
35.163,34.51
35.155,34.512
35.147,34.513
35.139,34.512
35.13,34.511
35.123,34.509
35.116,34.508
35.108,34.508
35.101,34.511
35.094,34.516
35.087,34.527
35.081,34.545
35.075,34.571
35.071,34.607
35.068,34.654
35.064,34.713
35.061,34.785
35.055,34.869
35.048,34.963
35.038,35.067
35.025,35.18
35.01,35.299
34.994,35.421
34.977,35.545
34.961,35.669
34.948,35.789
34.939,35.905
34.932,36.015
34.927,36.117
34.925,36.211
34.922,36.295
34.919,36.37
34.916,36.435
34.911,36.491
34.906,36.538
34.899,36.577
34.891,36.608
34.883,36.632
34.875,36.648
34.866,36.66
34.856,36.666
34.846,36.668
34.834,36.666
34.822,36.661
34.808,36.654
34.793,36.646
34.778,36.635
34.764,36.623
34.751,36.61
34.739,36.597
34.728,36.585
34.718,36.579
34.709,36.579
34.702,36.584
34.697,36.593
34.692,36.603
34.688,36.614
34.683,36.623
34.679,36.628
34.675,36.628
34.672,36.622
34.67,36.61
34.668,36.592
34.668,36.568
34.668,36.539
34.669,36.505
34.672,36.466
34.676,36.425
34.681,36.382
34.687,36.337
34.694,36.291
34.7,36.245
34.704,36.2
34.705,36.157
34.704,36.116
34.701,36.077
34.696,36.041
34.688,36.008
34.68,35.979
34.67,35.952
34.66,35.928
34.651,35.909
34.643,35.893
34.635,35.882
34.629,35.875
34.623,35.874
34.618,35.876
34.614,35.883
34.609,35.893
34.605,35.906
34.601,35.921
34.597,35.936
34.594,35.951
34.59,35.966
34.587,35.978
34.585,35.99
34.583,35.999
34.582,36.006
34.581,36.011
34.581,36.013
34.58,36.013
34.579,36.01
34.578,36.005
34.577,35.999
34.574,35.99
34.571,35.98
34.567,35.967
34.562,35.954
34.557,35.939
34.552,35.922
34.548,35.904
34.548,35.883
34.553,35.861
34.562,35.836
34.579,35.81
34.604,35.782
34.637,35.754
34.68,35.725
34.735,35.696
34.8,35.666
34.876,35.636
34.961,35.608
35.056,35.581
35.16,35.556
35.273,35.532
35.394,35.511
35.52,35.493
35.65,35.475
35.781,35.458
35.911,35.44
36.037,35.42
36.157,35.399
36.268,35.377
36.369,35.355
36.46,35.333
36.539,35.311
36.606,35.291
36.661,35.272
36.703,35.255
36.733,35.24
36.749,35.227
36.754,35.216
36.747,35.206
36.731,35.198
36.706,35.19
36.677,35.184
36.644,35.179
36.608,35.176
36.572,35.173
36.537,35.171
36.503,35.169
36.469,35.168
36.436,35.165
36.405,35.161
36.375,35.156
36.349,35.149
36.326,35.14
36.308,35.128
36.294,35.114
36.285,35.097
36.28,35.079
36.28,35.059
36.283,35.038
36.289,35.019
36.296,35.002
36.304,34.989
36.312,34.98
36.318,34.974
36.323,34.971
36.325,34.97
36.323,34.969
36.318,34.967
36.309,34.963
36.296,34.955
36.278,34.944
36.257,34.931
36.233,34.914
36.206,34.897
36.178,34.878
36.149,34.859
36.121,34.841
36.092,34.824
36.064,34.809
36.037,34.795
36.012,34.784
35.988,34.775
35.965,34.768
35.942,34.763
35.921,34.759
35.901,34.756
35.883,34.752
35.867,34.747
35.853,34.742
35.842,34.735
35.835,34.727
35.831,34.719
35.829,34.709
35.83,34.698
35.834,34.687
35.84,34.675
35.848,34.663
35.857,34.652
35.868,34.64
35.879,34.627
35.889,34.614
35.898,34.602
35.904,34.59
35.909,34.579
35.913,34.568
35.914,34.558
35.914,34.547
35.91,34.537
35.903,34.527
35.893,34.518
35.879,34.508
35.863,34.5
35.843,34.492
35.821,34.487
35.796,34.483
35.771,34.481
35.744,34.482
35.717,34.484
35.692,34.488
35.667,34.492
35.643,34.497
35.621,34.502
35.601,34.505
35.582,34.508
35.566,34.51
35.552,34.509
35.539,34.506
35.527,34.5
35.515,34.491
35.502,34.479
35.489,34.464
35.473,34.446
35.456,34.428
35.437,34.408
35.418,34.389
35.4,34.374
35.382,34.364
35.366,34.359
35.352,34.36
35.339,34.365
35.328,34.374
35.317,34.384
35.305,34.395
35.294,34.404
35.283,34.412
35.273,34.415
35.264,34.415
35.255,34.411
35.247,34.402
35.238,34.389
35.23,34.374
35.22,34.355
35.211,34.335
35.201,34.314
35.191,34.291
35.181,34.27
35.171,34.249
35.163,34.23
35.155,34.212
35.15,34.198
35.145,34.186
35.141,34.179
35.138,34.176
35.133,34.178
35.126,34.186
35.117,34.2
35.106,34.221
35.093,34.252
35.079,34.291
35.066,34.339
35.054,34.397
35.045,34.465
35.038,34.543
35.033,34.631
35.03,34.729
35.027,34.835
35.023,34.949
35.017,35.07
35.011,35.195
35.003,35.323
34.994,35.453
34.986,35.582
34.979,35.71
34.974,35.835
34.97,35.953
34.969,36.065
34.969,36.168
34.969,36.261
34.97,36.345
34.969,36.417
34.968,36.478
34.966,36.528
34.963,36.567
34.96,36.595
34.957,36.614
34.953,36.624
34.95,36.625
34.945,36.62
34.939,36.608
34.933,36.592
34.927,36.573
34.921,36.553
34.915,36.532
34.909,36.511
34.903,36.493
34.899,36.477
34.894,36.464
34.89,36.455
34.885,36.449
34.88,36.447
34.875,36.447
34.87,36.449
34.863,36.452
34.855,36.456
34.846,36.458
34.834,36.459
34.819,36.458
34.802,36.455
34.785,36.448
34.767,36.44
34.749,36.429
34.734,36.417
34.721,36.402
34.71,36.385
34.702,36.367
34.697,36.347
34.693,36.326
34.692,36.305
34.692,36.282
34.693,36.259
34.694,36.236
34.696,36.211
34.698,36.184
34.701,36.157
34.705,36.127
34.709,36.096
34.714,36.063
34.719,36.029
34.723,35.995
34.726,35.961
34.727,35.929
34.725,35.898
34.722,35.871
34.716,35.847
34.709,35.829
34.7,35.817
34.69,35.813
34.679,35.816
34.667,35.828
34.654,35.846
34.641,35.87
34.627,35.896
34.613,35.923
34.6,35.95
34.589,35.976
34.579,35.997
34.572,36.013
34.568,36.024
34.568,36.028
34.569,36.025
34.573,36.015
34.578,36
34.583,35.979
34.589,35.954
34.594,35.927
34.597,35.897
34.598,35.868
34.597,35.84
34.594,35.813
34.59,35.789
34.586,35.767
34.58,35.747
34.575,35.73
34.569,35.715
34.562,35.702
34.556,35.689
34.549,35.677
34.541,35.665
34.533,35.65
34.524,35.634
34.515,35.616
34.505,35.596
34.496,35.574
34.488,35.549
34.481,35.524
34.476,35.496
34.472,35.468
34.47,35.439
34.469,35.411
34.472,35.384
34.478,35.358
34.489,35.334
34.507,35.312
34.533,35.292
34.569,35.275
34.617,35.26
34.678,35.246
34.753,35.234
34.843,35.222
34.946,35.212
35.062,35.202
35.19,35.192
35.327,35.182
35.473,35.172
35.624,35.161
35.778,35.149
35.931,35.137
36.081,35.125
36.224,35.112
36.357,35.099
36.477,35.086
36.582,35.073
36.67,35.059
36.741,35.046
36.793,35.033
36.828,35.021
36.847,35.009
36.853,34.999
36.846,34.989
36.83,34.979
36.806,34.968
36.776,34.956
36.743,34.943
36.707,34.929
36.67,34.915
36.632,34.901
36.596,34.887
36.561,34.873
36.529,34.86
36.5,34.847
36.474,34.835
36.452,34.824
36.434,34.812
36.419,34.802
36.408,34.791
36.4,34.782
36.395,34.774
36.393,34.766
36.394,34.759
36.397,34.753
36.403,34.748
36.408,34.743
36.414,34.738
36.419,34.734
36.422,34.73
36.423,34.725
36.421,34.718
36.417,34.71
36.41,34.7
36.4,34.688
36.387,34.673
36.37,34.656
36.351,34.637
36.329,34.617
36.305,34.596
36.28,34.575
36.254,34.554
36.228,34.534
36.2,34.516
36.171,34.5
36.142,34.486
36.113,34.475
36.084,34.466
36.056,34.46
36.028,34.456
36.002,34.454
35.977,34.454
35.954,34.455
35.933,34.457
35.916,34.458
35.901,34.459
35.89,34.458
35.882,34.456
35.876,34.453
35.872,34.448
35.871,34.441
35.872,34.434
35.876,34.426
35.881,34.416
35.887,34.406
35.894,34.394
35.9,34.383
35.906,34.372
35.912,34.363
35.918,34.355
35.926,34.349
35.934,34.344
35.943,34.342
35.952,34.34
35.96,34.339
35.967,34.338
35.969,34.337
35.966,34.335
35.957,34.333
35.943,34.331
35.923,34.328
35.898,34.324
35.871,34.321
35.842,34.317
35.812,34.312
35.783,34.306
35.754,34.3
35.726,34.292
35.698,34.283
35.672,34.274
35.646,34.264
35.621,34.253
35.597,34.243
35.574,34.233
35.552,34.222
35.531,34.212
35.511,34.203
35.492,34.193
35.474,34.183
35.456,34.173
35.439,34.162
35.422,34.152
35.405,34.142
35.389,34.132
35.375,34.122
35.363,34.114
35.352,34.107
35.344,34.101
35.338,34.095
35.333,34.09
35.328,34.087
35.322,34.085
35.315,34.084
35.307,34.086
35.298,34.09
35.287,34.098
35.274,34.11
35.261,34.127
35.249,34.151
35.237,34.182
35.226,34.222
35.215,34.271
35.204,34.331
35.193,34.403
35.179,34.487
35.164,34.583
35.147,34.69
35.13,34.808
35.112,34.935
35.096,35.068
35.081,35.207
35.068,35.348
35.057,35.488
35.05,35.625
35.045,35.756
35.043,35.879
35.042,35.992
35.042,36.094
35.041,36.184
35.04,36.262
35.036,36.328
35.031,36.383
35.024,36.427
35.014,36.461
35.003,36.486
34.991,36.504
34.979,36.516
34.966,36.522
34.953,36.523
34.941,36.52
34.93,36.513
34.92,36.502
34.911,36.487
34.904,36.47
34.899,36.45
34.896,36.428
34.896,36.406
34.896,36.382
34.897,36.359
34.898,36.338
34.899,36.32
34.9,36.305
34.9,36.295
34.899,36.29
34.897,36.289
34.894,36.293
34.89,36.299
34.885,36.308
34.878,36.318
34.87,36.329
34.862,36.338
34.853,36.347
34.843,36.353
34.833,36.356
34.823,36.354
34.813,36.348
34.803,36.335
34.793,36.316
34.783,36.291
34.772,36.261
34.761,36.225
34.75,36.186
34.739,36.144
34.727,36.099
34.716,36.055
34.706,36.01
34.697,35.967
34.691,35.926
34.686,35.887
34.682,35.85
34.68,35.817
34.679,35.786
34.679,35.76
34.68,35.737
34.681,35.718
34.681,35.703
34.678,35.693
34.673,35.687
34.665,35.684
34.655,35.685
34.644,35.688
34.632,35.694
34.619,35.701
34.607,35.709
34.594,35.717
34.583,35.726
34.573,35.734
34.564,35.74
34.557,35.746
34.55,35.75
34.544,35.753
34.538,35.754
34.532,35.753
34.525,35.751
34.518,35.748
34.51,35.744
34.503,35.738
34.496,35.731
34.491,35.723
34.488,35.713
34.486,35.701
34.485,35.689
34.485,35.674
34.486,35.658
34.487,35.641
34.487,35.623
34.488,35.604
34.488,35.584
34.489,35.564
34.49,35.545
34.493,35.525
34.498,35.506
34.504,35.486
34.512,35.467
34.518,35.447
34.524,35.427
34.527,35.407
34.529,35.385
34.528,35.363
34.526,35.34
34.521,35.317
34.515,35.294
34.507,35.272
34.497,35.249
34.488,35.228
34.479,35.207
34.47,35.186
34.462,35.168
34.453,35.151
34.444,35.136
34.434,35.123
34.424,35.112
34.414,35.103
34.405,35.095
34.398,35.087
34.393,35.081
34.39,35.074
34.39,35.067
34.392,35.059
34.396,35.05
34.402,35.041
34.41,35.03
34.419,35.018
34.428,35.003
34.438,34.986
34.45,34.966
34.464,34.945
34.482,34.922
34.506,34.898
34.536,34.875
34.574,34.853
34.621,34.834
34.679,34.818
34.748,34.805
34.827,34.796
34.919,34.789
35.022,34.785
35.135,34.782
35.259,34.782
35.39,34.782
35.526,34.782
35.666,34.782
35.807,34.781
35.947,34.778
36.083,34.773
36.214,34.766
36.337,34.756
36.45,34.744
36.552,34.731
36.641,34.716
36.717,34.7
36.778,34.685
36.825,34.67
36.858,34.656
36.878,34.643
36.883,34.632
36.878,34.622
36.863,34.614
36.839,34.608
36.808,34.602
36.772,34.597
36.731,34.593
36.687,34.59
36.641,34.587
36.596,34.586
36.553,34.585
36.512,34.583
36.475,34.58
36.443,34.577
36.415,34.572
36.394,34.565
36.378,34.557
36.368,34.548
36.362,34.536
36.361,34.523
36.362,34.508
36.366,34.492
36.372,34.476
36.378,34.459
36.385,34.442
36.39,34.426
36.393,34.412
36.394,34.399
36.393,34.389
36.39,34.38
36.383,34.375
36.374,34.371
36.361,34.369
36.345,34.369
36.326,34.369
36.302,34.37
36.275,34.371
36.246,34.371
36.216,34.37
36.185,34.368
36.155,34.364
36.125,34.358
36.097,34.35
36.07,34.341
36.046,34.33
36.023,34.319
36.002,34.307
35.982,34.295
35.965,34.284
35.95,34.275
35.936,34.266
35.926,34.258
35.918,34.251
35.913,34.245
35.91,34.239
35.91,34.233
35.912,34.227
35.915,34.221
35.919,34.215
35.923,34.209
35.927,34.203
35.93,34.196
35.933,34.189
35.934,34.181
35.935,34.171
35.935,34.158
35.934,34.144
35.933,34.13
35.93,34.114
35.925,34.097
35.919,34.081
35.914,34.066
35.913,34.051
35.916,34.038
35.921,34.028
35.929,34.022
35.936,34.02
35.941,34.025
35.942,34.036
35.937,34.056
35.927,34.084
35.91,34.12
35.886,34.164
35.856,34.215
35.819,34.271
35.779,34.335
35.737,34.405
35.693,34.484
35.651,34.572
35.61,34.667
35.571,34.772
35.534,34.885
35.502,35.004
35.472,35.128
35.445,35.255
35.42,35.383
35.398,35.51
35.377,35.636
35.358,35.757
35.341,35.872
35.325,35.979
35.311,36.078
35.298,36.166
35.286,36.243
35.275,36.31
35.265,36.365
35.254,36.409
35.243,36.442
35.232,36.465
35.222,36.479
35.21,36.485
35.199,36.483
35.187,36.474
35.174,36.46
35.163,36.441
35.151,36.418
35.14,36.393
35.129,36.368
35.12,36.342
35.111,36.317
35.103,36.292
35.098,36.27
35.094,36.248
35.092,36.229
35.093,36.211
35.097,36.194
35.104,36.179
35.114,36.165
35.128,36.153
35.145,36.142
35.165,36.132
35.186,36.123
35.209,36.112
35.233,36.101
35.257,36.089
35.283,36.075
35.31,36.059
35.337,36.041
35.364,36.021
35.391,36
35.419,35.977
35.446,35.952
35.474,35.925
35.502,35.897
35.529,35.867
35.555,35.836
35.581,35.805
35.604,35.774
35.624,35.743
35.641,35.712
35.654,35.682
35.663,35.654
35.667,35.628
35.668,35.605
35.664,35.585
35.655,35.567
35.641,35.553
35.622,35.543
35.598,35.538
35.569,35.536
35.536,35.539
35.501,35.546
35.463,35.557
35.423,35.571
35.381,35.588
35.336,35.607
35.288,35.628
35.238,35.648
35.186,35.668
35.133,35.686
35.08,35.7
35.029,35.711
34.979,35.717
34.934,35.719
34.893,35.715
34.858,35.706
34.829,35.693
34.805,35.677
34.787,35.658
34.774,35.638
34.765,35.618
34.759,35.598
34.756,35.579
34.756,35.561
34.758,35.545
34.764,35.53
34.772,35.515
34.783,35.5
34.798,35.486
34.814,35.472
34.833,35.458
34.853,35.444
34.873,35.429
34.891,35.415
34.908,35.399
34.922,35.383
34.935,35.366
34.945,35.345
34.955,35.321
34.964,35.294
34.971,35.264
34.978,35.231
34.983,35.197
34.987,35.161
34.988,35.126
34.987,35.091
34.984,35.058
34.978,35.028
34.97,35.002
34.961,34.981
34.952,34.963
34.943,34.95
34.933,34.941
34.924,34.936
34.915,34.934
34.907,34.935
34.9,34.938
34.893,34.942
34.886,34.946
34.879,34.948
34.873,34.948
34.866,34.946
34.858,34.941
34.848,34.934
34.839,34.926
34.828,34.916
34.816,34.907
34.804,34.898
34.79,34.89
34.776,34.885
34.762,34.882
34.748,34.882
34.734,34.884
34.722,34.89
34.71,34.899
34.698,34.912
34.686,34.927
34.674,34.947
34.663,34.969
34.653,34.994
34.642,35.022
34.632,35.052
34.623,35.083
34.614,35.113
34.606,35.143
34.6,35.172
34.595,35.199
34.593,35.224
34.592,35.245
34.593,35.262
34.594,35.275
34.596,35.284
34.597,35.288
34.599,35.288
34.6,35.283
34.6,35.274
34.599,35.261
34.598,35.243
34.596,35.221
34.593,35.195
34.589,35.165
34.584,35.132
34.578,35.097
34.572,35.06
34.565,35.021
34.559,34.98
34.553,34.937
34.547,34.893
34.542,34.847
34.537,34.8
34.533,34.754
34.528,34.708
34.523,34.663
34.518,34.621
34.514,34.582
34.512,34.546
34.512,34.515
34.515,34.489
34.519,34.467
34.524,34.451
34.53,34.439
34.535,34.431
34.539,34.429
34.541,34.43
34.542,34.435
34.543,34.444
34.542,34.455
34.541,34.469
34.539,34.483
34.538,34.498
34.536,34.512
34.534,34.526
34.532,34.539
34.529,34.55
34.525,34.56
34.52,34.569
34.515,34.576
34.508,34.582
34.501,34.586
34.494,34.589
34.486,34.592
34.48,34.595
34.473,34.598
34.466,34.602
34.458,34.606
34.45,34.61
34.44,34.613
34.429,34.616
34.418,34.619
34.407,34.62
34.397,34.621
34.388,34.62
34.381,34.617
34.376,34.613
34.373,34.606
34.373,34.597
34.374,34.586
34.375,34.572
34.376,34.556
34.375,34.539
34.373,34.52
34.369,34.5
34.364,34.479
34.358,34.457
34.352,34.435
34.347,34.414
34.343,34.393
34.34,34.374
34.34,34.357
34.342,34.343
34.345,34.33
34.348,34.32
34.35,34.313
34.352,34.308
34.353,34.304
34.352,34.302
34.35,34.299
34.346,34.297
34.342,34.293
34.337,34.288
34.331,34.282
34.324,34.275
34.318,34.268
34.311,34.26
34.304,34.253
34.298,34.246
34.292,34.24
34.287,34.234
34.283,34.229
34.281,34.225
34.28,34.221
34.28,34.218
34.28,34.214
34.281,34.211
34.281,34.207
34.282,34.203
34.282,34.199
34.282,34.194
34.283,34.189
34.283,34.184
34.283,34.179
34.282,34.175
34.281,34.172
34.279,34.17
34.276,34.169
34.273,34.168
34.269,34.167
34.264,34.165
34.26,34.163
34.257,34.16
34.253,34.157
34.25,34.152
34.248,34.147
34.246,34.142
34.245,34.137
34.246,34.133
34.247,34.129
34.248,34.125
34.25,34.12
34.251,34.116
34.252,34.111
34.251,34.106
34.251,34.1
34.249,34.095
34.247,34.089
34.245,34.083
34.242,34.078
34.238,34.073
34.234,34.068
34.23,34.064
34.226,34.059
34.222,34.055
34.219,34.05
34.216,34.044
34.214,34.037
34.212,34.028
34.211,34.018
34.209,34.006
34.206,33.994
34.204,33.981
34.202,33.968
34.2,33.956
34.197,33.943
34.194,33.932
34.192,33.923
34.192,33.915
34.194,33.91
34.2,33.906
34.211,33.904
34.229,33.905
34.256,33.907
34.293,33.911
34.343,33.916
34.407,33.922
34.488,33.929
34.586,33.936
34.701,33.944
34.833,33.951
34.981,33.957
35.143,33.963
35.317,33.968
35.501,33.971
35.693,33.973
35.889,33.973
36.087,33.972
36.284,33.969
36.477,33.964
36.663,33.959
36.837,33.954
36.997,33.949
37.141,33.946
37.265,33.944
37.367,33.944
37.448,33.946
37.508,33.951
37.548,33.957
37.57,33.966
37.574,33.976
37.564,33.987
37.539,33.999
37.502,34.012
37.454,34.023
37.397,34.034
37.333,34.043
37.265,34.05
37.195,34.056
37.126,34.061
37.059,34.063
36.997,34.065
36.941,34.066
36.892,34.065
36.849,34.063
36.812,34.06
36.78,34.057
36.752,34.053
36.728,34.05
36.707,34.047
36.689,34.045
36.675,34.043
36.663,34.042
36.653,34.042
36.645,34.041
36.638,34.042
36.633,34.043
36.629,34.044
36.626,34.047
36.624,34.05
36.62,34.053
36.617,34.055
36.611,34.058
36.604,34.061
36.593,34.063
36.581,34.065
36.565,34.066
36.546,34.067
36.525,34.066
36.501,34.064
36.475,34.062
36.448,34.059
36.421,34.056
36.394,34.054
36.368,34.052
36.342,34.052
36.317,34.054
36.293,34.058
36.271,34.066
36.249,34.077
36.229,34.093
36.21,34.115
36.193,34.146
36.178,34.188
36.165,34.242
36.153,34.309
36.143,34.392
36.135,34.492
36.13,34.609
36.127,34.742
36.124,34.891
36.123,35.056
36.122,35.234
36.122,35.423
36.122,35.621
36.123,35.822
36.123,36.025
36.123,36.224
36.122,36.417
36.12,36.599
36.117,36.77
36.113,36.925
36.107,37.064
36.1,37.186
36.091,37.289
36.082,37.375
36.071,37.442
36.059,37.493
36.047,37.526
36.033,37.544
36.018,37.547
36.001,37.536
35.982,37.513
35.96,37.48
35.936,37.439
35.909,37.392
35.881,37.342
35.852,37.29
35.823,37.237
35.795,37.186
35.768,37.137
35.741,37.091
35.716,37.049
35.691,37.012
35.667,36.977
35.645,36.946
35.623,36.918
35.602,36.894
35.582,36.871
35.565,36.851
35.549,36.834
35.536,36.82
35.525,36.808
35.516,36.8
35.508,36.795
35.501,36.793
35.493,36.793
35.485,36.795
35.475,36.798
35.463,36.802
35.45,36.807
35.436,36.811
35.422,36.814
35.407,36.816
35.393,36.814
35.38,36.809
35.367,36.8
35.355,36.787
35.343,36.769
35.333,36.746
35.323,36.718
35.314,36.687
35.305,36.651
35.298,36.613
35.293,36.572
35.289,36.531
35.286,36.49
35.283,36.45
35.28,36.413
35.275,36.379
35.269,36.347
35.261,36.319
35.252,36.295
35.241,36.276
35.229,36.261
35.218,36.25
35.207,36.242
35.196,36.237
35.185,36.234
35.175,36.234
35.165,36.235
35.154,36.238
35.143,36.241
35.13,36.244
35.117,36.247
35.103,36.249
35.088,36.25
35.073,36.249
35.059,36.247
35.045,36.243
35.033,36.237
35.023,36.229
35.014,36.221
35.005,36.211
34.997,36.2
34.989,36.189
34.979,36.178
34.969,36.165
34.958,36.152
34.947,36.139
34.937,36.125
34.926,36.109
34.917,36.093
34.908,36.076
34.901,36.058
34.896,36.039
34.893,36.02
34.891,36.003
34.891,35.987
34.89,35.975
34.889,35.964
34.886,35.954
34.882,35.943
34.876,35.931
34.87,35.917
34.864,35.9
34.856,35.879
34.848,35.856
34.839,35.83
34.83,35.8
34.819,35.768
34.808,35.734
34.797,35.698
34.785,35.661
34.772,35.625
34.76,35.589
34.747,35.555
34.736,35.522
34.726,35.492
34.718,35.465
34.71,35.442
34.705,35.421
34.701,35.403
34.698,35.389
34.696,35.377
34.695,35.367
34.694,35.358
34.691,35.349
34.687,35.34
34.682,35.33
34.675,35.318
34.667,35.303
34.66,35.286
34.653,35.267
34.647,35.245
34.641,35.223
34.635,35.2
34.63,35.178
34.626,35.157
34.622,35.138
34.619,35.121
34.616,35.106
34.614,35.094
34.612,35.084
34.609,35.075
34.605,35.068
34.599,35.061
34.59,35.053
34.579,35.045
34.567,35.036
34.553,35.026
34.539,35.014
34.526,34.999
34.515,34.982
34.505,34.963
34.498,34.943
34.494,34.922
34.493,34.901
34.494,34.88
34.498,34.861
34.503,34.843
34.509,34.827
34.514,34.814
34.518,34.802
34.521,34.793
34.524,34.786
34.525,34.78
34.526,34.777
34.527,34.774
34.527,34.772
34.526,34.769
34.523,34.766
34.518,34.763
34.511,34.759
34.503,34.753
34.495,34.747
34.487,34.74
34.481,34.732
34.476,34.724
34.474,34.715
34.474,34.706
34.475,34.696
34.477,34.687
34.477,34.677
34.476,34.667
34.473,34.656
34.468,34.645
34.461,34.633
34.453,34.622
34.445,34.61
34.436,34.598
34.426,34.586
34.415,34.576
34.404,34.567
34.392,34.559
34.381,34.553
34.369,34.549
34.356,34.546
34.343,34.545
34.33,34.545
34.317,34.546
34.307,34.547
34.301,34.548
34.3,34.548
34.307,34.547
34.325,34.544
34.356,34.54
34.402,34.536
34.464,34.531
34.543,34.526
34.637,34.521
34.746,34.516
34.867,34.512
35,34.509
35.144,34.506
35.297,34.504
35.458,34.501
35.627,34.499
35.801,34.496
35.978,34.492
36.156,34.487
36.33,34.482
36.498,34.475
36.657,34.466
36.803,34.455
36.935,34.442
37.05,34.428
37.147,34.413
37.226,34.396
37.287,34.378
37.33,34.359
37.355,34.339
37.363,34.32
37.356,34.301
37.337,34.283
37.306,34.267
37.268,34.254
37.223,34.245
37.175,34.24
37.124,34.239
37.072,34.242
37.021,34.25
36.97,34.261
36.919,34.276
36.87,34.295
36.823,34.317
36.779,34.343
36.739,34.374
36.702,34.411
36.67,34.454
36.644,34.505
36.622,34.563
36.605,34.631
36.593,34.711
36.583,34.804
36.571,34.911
36.56,35.033
36.548,35.168
36.537,35.315
36.527,35.473
36.518,35.638
36.51,35.808
36.502,35.98
36.494,36.151
36.484,36.316
36.473,36.473
36.461,36.618
36.446,36.749
36.43,36.863
36.413,36.959
36.394,37.037
36.375,37.097
36.356,37.14
36.336,37.166
36.315,37.178
36.294,37.178
36.271,37.168
36.248,37.15
36.225,37.126
36.201,37.098
36.177,37.067
36.156,37.035
36.136,37.002
36.119,36.968
36.106,36.936
36.096,36.904
36.09,36.874
36.087,36.845
36.087,36.819
36.088,36.795
36.09,36.774
36.093,36.755
36.094,36.74
36.095,36.728
36.095,36.719
36.096,36.713
36.098,36.709
36.1,36.706
36.103,36.705
36.105,36.704
36.106,36.704
36.105,36.702
36.101,36.7
36.095,36.697
36.086,36.693
36.075,36.686
36.064,36.678
36.052,36.666
36.04,36.65
36.029,36.631
36.019,36.609
36.007,36.583
35.995,36.554
35.98,36.523
35.962,36.491
35.942,36.458
35.92,36.423
35.898,36.388
35.875,36.352
35.852,36.317
35.829,36.283
35.807,36.251
35.784,36.22
35.76,36.192
35.737,36.166
35.713,36.143
35.69,36.123
35.668,36.107
35.647,36.093
35.628,36.082
35.611,36.074
35.595,36.068
35.581,36.063
35.567,36.061
35.554,36.062
35.542,36.065
35.53,36.07
35.517,36.076
35.502,36.084
35.487,36.093
35.471,36.1
35.455,36.107
35.438,36.113
35.422,36.116
35.406,36.117
35.392,36.116
35.379,36.112
35.367,36.104
35.356,36.095
35.345,36.082
35.333,36.067
35.32,36.051
35.306,36.033
35.29,36.014
35.274,35.993
35.258,35.972
35.242,35.951
35.228,35.93
35.215,35.909
35.205,35.89
35.197,35.87
35.19,35.852
35.185,35.835
35.182,35.814
35.179,35.787
35.177,35.755
35.176,35.719
35.175,35.68
35.172,35.639
35.167,35.599
35.161,35.561
35.152,35.526
35.141,35.496
35.128,35.469
35.115,35.448
35.102,35.43
35.089,35.418
35.077,35.409
35.066,35.404
35.055,35.401
35.047,35.399
35.039,35.399
35.031,35.399
35.023,35.399
35.014,35.397
35.005,35.393
34.994,35.388
34.982,35.38
34.97,35.369
34.958,35.357
34.946,35.343
34.937,35.327
34.931,35.31
34.927,35.292
34.927,35.274
34.928,35.257
34.931,35.24
34.933,35.224
34.935,35.21
34.936,35.199
34.935,35.19
34.931,35.184
34.927,35.182
34.921,35.181
34.914,35.184
34.905,35.189
34.896,35.196
34.885,35.205
34.874,35.215
34.861,35.227
34.847,35.241
34.833,35.256
34.818,35.273
34.805,35.291
34.792,35.309
34.781,35.327
34.772,35.343
34.765,35.357
34.759,35.368
34.753,35.376
34.749,35.379
34.745,35.378
34.743,35.372
34.741,35.362
34.739,35.348
34.737,35.33
34.736,35.309
34.735,35.285
34.734,35.258
34.733,35.229
34.731,35.198
34.728,35.165
34.724,35.129
34.719,35.092
34.711,35.053
34.702,35.013
34.691,34.971
34.679,34.928
34.666,34.883
34.654,34.838
34.643,34.794
34.634,34.751
34.628,34.711
34.624,34.675
34.621,34.644
34.62,34.618
34.62,34.598
34.619,34.584
34.618,34.575
34.616,34.571
34.613,34.573
34.608,34.579
34.603,34.589
34.596,34.602
34.589,34.618
34.582,34.636
34.573,34.654
34.563,34.671
34.553,34.686
34.544,34.699
34.536,34.71
34.53,34.718
34.527,34.723
34.525,34.725
34.526,34.726
34.529,34.725
34.533,34.723
34.539,34.722
34.546,34.722
34.553,34.724
34.56,34.727
34.566,34.732
34.569,34.739
34.569,34.746
34.565,34.754
34.559,34.761
34.549,34.767
34.538,34.77
34.525,34.769
34.512,34.765
34.498,34.757
34.485,34.746
34.473,34.732
34.462,34.715
34.452,34.696
34.445,34.675
34.439,34.653
34.435,34.631
34.433,34.61
34.432,34.589
34.43,34.57
34.429,34.553
34.427,34.539
34.424,34.527
34.421,34.519
34.418,34.514
34.416,34.511
34.413,34.509
34.41,34.508
34.407,34.508
34.404,34.509
34.402,34.508
34.402,34.508
34.406,34.507
34.416,34.505
34.433,34.502
34.461,34.499
34.499,34.495
34.549,34.489
34.611,34.482
34.685,34.473
34.773,34.461
34.875,34.449
34.99,34.434
35.119,34.419
35.261,34.403
35.416,34.386
35.581,34.37
35.753,34.354
35.93,34.339
36.107,34.325
36.28,34.314
36.447,34.305
36.604,34.299
36.75,34.296
36.883,34.295
37.001,34.297
37.103,34.3
37.189,34.305
37.258,34.311
37.31,34.317
37.344,34.323
37.361,34.329
37.364,34.334
37.354,34.338
37.333,34.341
37.304,34.343
37.269,34.344
37.228,34.343
37.183,34.341
37.135,34.338
37.085,34.334
37.035,34.329
36.985,34.325
36.938,34.32
36.895,34.315
36.855,34.309
36.821,34.304
36.793,34.297
36.768,34.29
36.749,34.284
36.734,34.278
36.723,34.272
36.714,34.266
36.708,34.261
36.703,34.256
36.699,34.251
36.695,34.246
36.691,34.241
36.686,34.236
36.682,34.232
36.676,34.227
36.67,34.224
36.662,34.22
36.654,34.217
36.643,34.214
36.631,34.213
36.616,34.212
36.598,34.213
36.577,34.214
36.553,34.216
36.528,34.217
36.502,34.219
36.475,34.219
36.449,34.22
36.422,34.22
36.397,34.218
36.372,34.216
36.347,34.213
36.324,34.208
36.302,34.202
36.28,34.195
36.258,34.187
36.238,34.178
36.221,34.168
36.207,34.158
36.196,34.148
36.189,34.138
36.185,34.129
36.183,34.122
36.184,34.117
36.186,34.115
36.191,34.117
36.198,34.122
36.206,34.13
36.216,34.139
36.225,34.15
36.233,34.161
36.241,34.172
36.246,34.181
36.25,34.189
36.251,34.195
36.251,34.198
36.248,34.199
36.243,34.197
36.237,34.191
36.23,34.183
36.221,34.173
36.21,34.161
36.197,34.149
36.183,34.137
36.167,34.126
36.151,34.116
36.134,34.108
36.117,34.103
36.099,34.099
36.079,34.098
36.058,34.097
36.036,34.099
36.012,34.103
35.988,34.108
35.963,34.115
35.938,34.121
35.912,34.128
35.885,34.135
35.857,34.141
35.829,34.147
35.801,34.152
35.773,34.157
35.747,34.161
35.723,34.165
35.702,34.168
35.684,34.17
35.667,34.171
35.652,34.17
35.637,34.167
35.622,34.163
35.608,34.157
35.593,34.149
35.579,34.14
35.567,34.13
35.556,34.119
35.546,34.108
35.538,34.096
35.531,34.084
35.524,34.073
35.516,34.061
35.508,34.051
35.497,34.042
35.485,34.034
35.473,34.027
35.461,34.022
35.449,34.018
35.437,34.017
35.427,34.019
35.417,34.026
35.407,34.039
35.396,34.062
35.384,34.095
35.372,34.142
35.361,34.203
35.35,34.28
35.34,34.374
35.331,34.488
35.324,34.622
35.319,34.777
35.316,34.953
35.314,35.149
35.313,35.362
35.312,35.588
35.31,35.823
35.306,36.061
35.3,36.297
35.293,36.527
35.284,36.746
35.274,36.95
35.264,37.136
35.254,37.303
35.244,37.45
35.234,37.575
35.224,37.679
35.213,37.763
35.202,37.827
35.19,37.872
35.177,37.901
35.163,37.914
35.149,37.915
35.134,37.904
35.119,37.884
35.105,37.855
35.091,37.82
35.078,37.779
35.067,37.733
35.059,37.684
35.055,37.634
35.053,37.584
35.055,37.535
35.057,37.488
35.06,37.446
35.062,37.41
35.063,37.379
35.062,37.353
35.059,37.334
35.055,37.319
35.05,37.309
35.044,37.303
35.037,37.299
35.029,37.298
35.02,37.297
35.012,37.297
35.003,37.296
34.995,37.294
34.988,37.29
34.981,37.284
34.976,37.274
34.97,37.263
34.963,37.249
34.955,37.234
34.946,37.219
34.937,37.202
34.927,37.184
34.918,37.164
34.909,37.142
34.899,37.118
34.889,37.092
34.879,37.065
34.869,37.037
34.859,37.007
34.85,36.977
34.842,36.947
34.835,36.917
34.83,36.889
34.826,36.862
34.823,36.838
34.819,36.817
34.815,36.799
34.809,36.784
34.803,36.774
34.796,36.766
34.788,36.762
34.781,36.759
34.775,36.759
34.769,36.76
34.763,36.762
34.757,36.765
34.749,36.769
34.741,36.772
34.734,36.774
34.727,36.775
34.721,36.774
34.715,36.771
34.71,36.764
34.706,36.754
34.703,36.742
34.7,36.727
34.697,36.71
34.693,36.692
34.689,36.674
34.684,36.655
34.678,36.636
34.671,36.618
34.664,36.601
34.656,36.583
34.649,36.566
34.644,36.549
34.64,36.531
34.639,36.514
34.639,36.497
34.641,36.479
34.643,36.461
34.644,36.442
34.643,36.422
34.639,36.401
34.632,36.378
34.623,36.356
34.612,36.333
34.6,36.31
34.588,36.286
34.578,36.263
34.569,36.239
34.562,36.216
34.557,36.192
34.553,36.168
34.552,36.141
34.552,36.112
34.553,36.081
34.555,36.051
34.557,36.021
34.559,35.993
34.561,35.966
34.562,35.942
34.563,35.92
34.563,35.902
34.561,35.885
34.558,35.871
34.553,35.858
34.547,35.845
34.54,35.831
34.533,35.815
34.527,35.798
34.524,35.778
34.525,35.756
34.532,35.731
34.548,35.704
34.574,35.675
34.613,35.645
34.665,35.615
34.73,35.586
34.808,35.558
34.9,35.531
35.004,35.507
35.12,35.486
35.247,35.468
35.383,35.453
35.529,35.441
35.681,35.432
35.839,35.425
35.999,35.418
36.162,35.412
36.323,35.404
36.482,35.395
36.636,35.384
36.781,35.369
36.916,35.351
37.037,35.331
37.144,35.309
37.235,35.286
37.31,35.264
37.368,35.244
37.41,35.226
37.438,35.211
37.452,35.199
37.455,35.19
37.447,35.184
37.43,35.18
37.405,35.179
37.373,35.179
37.337,35.18
37.296,35.182
37.254,35.184
37.209,35.185
37.165,35.184
37.123,35.182
37.083,35.177
37.046,35.17
37.013,35.16
36.983,35.147
36.956,35.132
36.931,35.116
36.908,35.099
36.887,35.082
36.867,35.065
36.848,35.048
36.831,35.032
36.815,35.017
36.8,35.004
36.787,34.991
36.776,34.979
36.765,34.969
36.757,34.959
36.751,34.952
36.746,34.946
36.742,34.941
36.737,34.937
36.731,34.933
36.722,34.929
36.71,34.923
36.695,34.916
36.677,34.908
36.658,34.898
36.638,34.886
36.617,34.874
36.596,34.862
36.573,34.85
36.549,34.839
36.524,34.829
36.497,34.821
36.471,34.813
36.447,34.806
36.425,34.8
36.406,34.793
36.393,34.786
36.383,34.779
36.377,34.772
36.373,34.766
36.37,34.759
36.37,34.753
36.37,34.745
36.372,34.738
36.374,34.73
36.378,34.722
36.382,34.713
36.384,34.705
36.379,34.697
36.369,34.688
36.354,34.679
36.335,34.67
36.314,34.66
36.293,34.65
36.273,34.64
36.257,34.63
36.244,34.622
36.235,34.614
36.229,34.607
36.227,34.6
36.227,34.594
36.229,34.589
36.232,34.584
36.235,34.579
36.236,34.573
36.235,34.567
36.231,34.559
36.223,34.55
36.212,34.538
36.197,34.525
36.179,34.51
36.16,34.494
36.138,34.477
36.116,34.462
36.092,34.448
36.067,34.438
36.042,34.432
36.015,34.433
35.988,34.443
35.961,34.464
35.935,34.498
35.91,34.545
35.887,34.606
35.865,34.683
35.844,34.775
35.825,34.882
35.808,35.005
35.792,35.141
35.777,35.288
35.764,35.445
35.752,35.61
35.741,35.779
35.731,35.949
35.721,36.119
35.712,36.287
35.702,36.449
35.691,36.605
35.681,36.753
35.669,36.891
35.657,37.018
35.643,37.132
35.627,37.232
35.61,37.318
35.592,37.39
35.573,37.446
35.554,37.487
35.535,37.513
35.518,37.526
35.501,37.528
35.486,37.518
35.474,37.5
35.464,37.476
35.456,37.448
35.449,37.416
35.441,37.383
35.434,37.35
35.427,37.319
35.419,37.289
35.411,37.262
35.402,37.238
35.392,37.217
35.38,37.199
35.368,37.185
35.357,37.174
35.347,37.166
35.339,37.16
35.332,37.156
35.327,37.152
35.323,37.149
35.32,37.147
35.317,37.144
35.314,37.142
35.31,37.139
35.304,37.136
35.297,37.131
35.289,37.124
35.279,37.115
35.268,37.105
35.254,37.092
35.24,37.076
35.224,37.057
35.209,37.035
35.194,37.011
35.179,36.983
35.167,36.953
35.157,36.92
35.149,36.884
35.141,36.847
35.133,36.809
35.125,36.77
35.116,36.731
35.105,36.694
35.093,36.658
35.08,36.626
35.068,36.597
35.058,36.573
35.049,36.552
35.041,36.535
35.035,36.523
35.029,36.514
35.022,36.509
35.016,36.507
35.009,36.507
35.002,36.509
34.994,36.512
34.986,36.515
34.977,36.519
34.967,36.522
34.957,36.525
34.947,36.526
34.938,36.525
34.93,36.523
34.923,36.519
34.917,36.514
34.911,36.51
34.905,36.504
34.898,36.499
34.891,36.493
34.885,36.487
34.88,36.479
34.876,36.471
34.873,36.461
34.871,36.449
34.869,36.436
34.866,36.421
34.863,36.404
34.86,36.386
34.855,36.367
34.848,36.347
34.84,36.325
34.831,36.302
34.822,36.278
34.813,36.254
34.805,36.229
34.797,36.206
34.79,36.182
34.784,36.16
34.778,36.137
34.772,36.115
34.766,36.092
34.76,36.068
34.753,36.043
34.744,36.017
34.734,35.99
34.723,35.963
34.711,35.934
34.698,35.904
34.685,35.873
34.672,35.842
34.66,35.811
34.649,35.78
34.639,35.751
34.631,35.724
34.626,35.701
34.622,35.681
34.62,35.665
34.62,35.652
34.622,35.642
34.624,35.634
34.628,35.627
34.63,35.621
34.631,35.614
34.631,35.607
34.629,35.599
34.626,35.589
34.622,35.577
34.618,35.562
34.612,35.544
34.606,35.524
34.6,35.502
34.593,35.479
34.586,35.456
34.579,35.433
34.573,35.411
34.567,35.391
34.56,35.372
34.553,35.355
34.545,35.34
34.536,35.327
34.527,35.316
34.517,35.305
34.506,35.296
34.496,35.287
34.488,35.278
34.483,35.27
34.482,35.261
34.486,35.252
34.497,35.243
34.514,35.232
34.54,35.219
34.575,35.205
34.621,35.19
34.679,35.174
34.749,35.158
34.831,35.142
34.925,35.126
35.031,35.111
35.148,35.096
35.275,35.083
35.412,35.07
35.558,35.059
35.711,35.048
35.87,35.038
36.031,35.03
36.193,35.024
36.353,35.019
36.509,35.015
36.657,35.012
36.795,35.01
36.922,35.009
37.035,35.007
37.135,35.005
37.218,35.003
37.286,35
37.338,34.995
37.375,34.989
37.399,34.981
37.409,34.972
37.409,34.962
37.399,34.951
37.379,34.94
37.349,34.928
37.312,34.917
37.269,34.905
37.22,34.894
37.169,34.882
37.116,34.872
37.064,34.862
37.015,34.854
36.971,34.845
36.935,34.838
36.905,34.83
36.882,34.822
36.865,34.814
36.851,34.806
36.841,34.797
36.833,34.788
36.826,34.777
36.82,34.765
36.815,34.753
36.81,34.74
36.805,34.727
36.8,34.715
36.794,34.704
36.787,34.694
36.777,34.685
36.766,34.677
36.753,34.669
36.738,34.661
36.721,34.653
36.703,34.645
36.684,34.637
36.664,34.628
36.642,34.618
36.62,34.608
36.598,34.597
36.575,34.586
36.554,34.574
36.534,34.562
36.517,34.549
36.502,34.536
36.489,34.524
36.477,34.512
36.465,34.502
36.452,34.494
36.439,34.489
36.425,34.485
36.41,34.484
36.395,34.485
36.381,34.487
36.365,34.491
36.35,34.498
36.336,34.508
36.323,34.522
36.311,34.539
36.302,34.56
36.296,34.585
36.292,34.617
36.293,34.655
36.297,34.702
36.303,34.758
36.311,34.825
36.319,34.905
36.325,34.997
36.329,35.102
36.331,35.221
36.33,35.351
36.327,35.492
36.322,35.642
36.316,35.798
36.309,35.957
36.299,36.118
36.288,36.277
36.275,36.433
36.262,36.581
36.247,36.721
36.231,36.849
36.214,36.964
36.196,37.066
36.178,37.153
36.158,37.225
36.137,37.281
36.113,37.321
36.089,37.348
36.063,37.364
36.037,37.368
36.012,37.364
35.988,37.351
35.964,37.33
35.942,37.303
35.92,37.27
35.898,37.233
35.875,37.195
35.853,37.155
35.831,37.117
35.81,37.081
35.789,37.048
35.769,37.02
35.749,36.996
35.73,36.976
35.713,36.96
35.697,36.947
35.683,36.938
35.672,36.931
35.662,36.926
35.654,36.922
35.647,36.918
35.64,36.914
35.633,36.909
35.623,36.902
35.612,36.894
35.599,36.883
35.586,36.87
35.573,36.853
35.562,36.834
35.552,36.811
35.543,36.785
35.534,36.757
35.525,36.726
35.517,36.693
35.509,36.658
35.502,36.622
35.495,36.585
35.489,36.548
35.484,36.511
35.48,36.475
35.476,36.441
35.471,36.41
35.466,36.383
35.461,36.36
35.454,36.341
35.447,36.326
35.438,36.315
35.429,36.308
35.419,36.304
35.407,36.303
35.394,36.305
35.379,36.308
35.363,36.313
35.345,36.32
35.327,36.328
35.308,36.336
35.29,36.344
35.273,36.352
35.256,36.36
35.24,36.367
35.225,36.373
35.212,36.379
35.201,36.383
35.193,36.386
35.187,36.387
35.182,36.384
35.178,36.379
35.174,36.371
35.171,36.359
35.166,36.344
35.158,36.326
35.148,36.306
35.134,36.283
35.118,36.26
35.1,36.235
35.081,36.209
35.061,36.184
35.042,36.16
35.025,36.137
35.01,36.114
34.998,36.093
34.989,36.072
34.984,36.051
34.982,36.03
34.981,36.009
34.981,35.987
34.979,35.963
34.976,35.938
34.97,35.911
34.963,35.883
34.953,35.854
34.942,35.824
34.931,35.794
34.919,35.764
34.907,35.734
34.896,35.706
34.886,35.679
34.878,35.654
34.871,35.631
34.867,35.611
34.864,35.592
34.862,35.577
34.859,35.563
34.854,35.551
34.848,35.54
34.84,35.531
34.829,35.523
34.816,35.515
34.802,35.506
34.787,35.497
34.771,35.488
34.756,35.477
34.741,35.466
34.728,35.454
34.716,35.441
34.707,35.427
34.7,35.413
34.695,35.399
34.692,35.384
34.689,35.368
34.686,35.351
34.684,35.334
34.68,35.316
34.677,35.298
34.675,35.28
34.675,35.262
34.675,35.246
34.676,35.231
34.678,35.218
34.681,35.206
34.684,35.197
34.686,35.189
34.687,35.182
34.687,35.176
34.686,35.17
34.682,35.163
34.676,35.156
34.668,35.147
34.658,35.138
34.646,35.128
34.634,35.116
34.622,35.104
34.609,35.09
34.596,35.077
34.582,35.063
34.568,35.051
34.554,35.038
34.539,35.027
34.525,35.016
34.513,35.005
34.504,34.996
34.498,34.986
34.498,34.975
34.504,34.964
34.516,34.952
34.536,34.94
34.564,34.927
34.601,34.914
34.647,34.901
34.703,34.888
34.77,34.875
34.846,34.862
34.933,34.851
35.03,34.84
35.137,34.83
35.254,34.821
35.38,34.812
35.514,34.805
35.655,34.798
35.801,34.792
35.951,34.786
36.102,34.781
36.252,34.776
36.4,34.771
36.543,34.764
36.68,34.757
36.808,34.749
36.927,34.739
37.034,34.728
37.127,34.716
37.205,34.703
37.269,34.689
37.317,34.675
37.351,34.66
37.373,34.645
37.383,34.63
37.384,34.616
37.376,34.604
37.361,34.594
37.339,34.587
37.311,34.583
37.277,34.581
37.239,34.581
37.197,34.583
37.154,34.587
37.111,34.592
37.068,34.602
37.027,34.619
36.987,34.643
36.951,34.671
36.918,34.7
36.889,34.727
36.865,34.749
36.846,34.763
36.832,34.767
36.822,34.762
36.816,34.747
36.812,34.723
36.812,34.69
36.813,34.651
36.814,34.609
36.815,34.564
36.816,34.52
36.814,34.477
36.812,34.437
36.807,34.4
36.8,34.368
36.789,34.342
36.775,34.321
36.756,34.306
36.734,34.296
36.708,34.292
36.68,34.291
36.649,34.295
36.617,34.302
36.586,34.312
36.557,34.324
36.528,34.339
36.502,34.355
36.478,34.375
36.456,34.399
36.437,34.428
36.421,34.465
36.407,34.511
36.396,34.569
36.385,34.639
36.375,34.725
36.365,34.827
36.356,34.945
36.347,35.078
36.338,35.225
36.332,35.383
36.329,35.55
36.328,35.724
36.33,35.902
36.334,36.08
36.339,36.256
36.344,36.427
36.348,36.589
36.349,36.741
36.349,36.88
36.345,37.006
36.339,37.118
36.331,37.214
36.322,37.295
36.312,37.359
36.302,37.409
36.291,37.444
36.28,37.467
36.27,37.478
36.26,37.48
36.249,37.474
36.236,37.462
36.222,37.446
36.204,37.426
36.182,37.404
36.157,37.38
36.128,37.356
36.098,37.331
36.067,37.306
36.036,37.281
36.005,37.257
35.975,37.233
35.946,37.211
35.919,37.192
35.893,37.178
35.87,37.168
35.849,37.162
35.83,37.161
35.814,37.163
35.801,37.168
35.789,37.173
35.778,37.18
35.768,37.185
35.757,37.189
35.745,37.191
35.733,37.189
35.72,37.184
35.706,37.175
35.693,37.162
35.679,37.145
35.666,37.125
35.652,37.102
35.638,37.077
35.625,37.051
35.613,37.023
35.6,36.994
35.587,36.966
35.574,36.937
35.56,36.907
35.544,36.876
35.526,36.845
35.507,36.813
35.487,36.78
35.467,36.746
35.448,36.713
35.432,36.679
35.418,36.646
35.406,36.614
35.397,36.584
35.391,36.558
35.386,36.537
35.384,36.522
35.382,36.512
35.382,36.508
35.383,36.509
35.383,36.514
35.382,36.521
35.38,36.53
35.377,36.539
35.373,36.548
35.366,36.555
35.357,36.56
35.347,36.562
35.335,36.562
35.321,36.56
35.306,36.555
35.289,36.548
35.272,36.539
35.255,36.528
35.238,36.517
35.224,36.505
35.21,36.493
35.198,36.48
35.187,36.466
35.175,36.45
35.162,36.433
35.149,36.413
35.134,36.392
35.119,36.369
35.104,36.344
35.089,36.319
35.074,36.293
35.059,36.265
35.046,36.237
35.034,36.207
35.023,36.178
35.015,36.149
35.009,36.121
35.004,36.093
35.001,36.066
34.998,36.04
34.995,36.015
34.992,35.991
34.988,35.969
34.985,35.947
34.982,35.924
34.978,35.902
34.972,35.88
34.965,35.858
34.956,35.835
34.944,35.812
34.93,35.789
34.915,35.766
34.9,35.744
34.886,35.723
34.874,35.703
34.863,35.683
34.854,35.663
34.847,35.644
34.842,35.626
34.838,35.608
34.834,35.591
34.831,35.575
34.828,35.56
34.824,35.545
34.82,35.53
34.813,35.516
34.805,35.502
34.796,35.488
34.786,35.473
34.777,35.457
34.768,35.44
34.758,35.423
34.749,35.404
34.74,35.386
34.73,35.367
34.72,35.349
34.711,35.332
34.702,35.316
34.695,35.301
34.688,35.288
34.682,35.275
34.678,35.262
34.673,35.251
34.669,35.239
34.666,35.228
34.663,35.218
34.66,35.208
34.657,35.199
34.654,35.189
34.649,35.18
34.644,35.169
34.638,35.158
34.632,35.145
34.626,35.13
34.622,35.112
34.617,35.092
34.613,35.071
34.607,35.047
