Trial 3:3back,Trial 5:3back
35.726,35.423
35.704,35.408
35.684,35.393
35.667,35.379
35.652,35.365
35.639,35.352
35.626,35.339
35.614,35.328
35.601,35.317
35.589,35.312
35.576,35.317
35.563,35.332
35.551,35.357
35.538,35.389
35.525,35.423
35.512,35.455
35.498,35.485
35.483,35.509
35.466,35.526
35.447,35.537
35.428,35.541
35.41,35.538
35.393,35.528
35.377,35.513
35.363,35.492
35.352,35.467
35.342,35.44
35.335,35.412
35.331,35.385
35.331,35.36
35.334,35.337
35.342,35.319
35.353,35.303
35.367,35.289
35.383,35.277
35.398,35.265
35.413,35.253
35.426,35.24
35.438,35.228
35.447,35.216
35.453,35.204
35.457,35.192
35.457,35.182
35.454,35.172
35.446,35.162
35.434,35.151
35.418,35.138
35.398,35.123
35.375,35.105
35.35,35.083
35.322,35.059
35.292,35.035
35.26,35.01
35.228,34.987
35.195,34.966
35.163,34.947
35.132,34.932
35.103,34.919
35.076,34.91
35.052,34.903
35.03,34.899
35.011,34.896
34.994,34.893
34.979,34.891
34.965,34.888
34.952,34.884
34.94,34.879
34.931,34.87
34.924,34.859
34.919,34.847
34.914,34.833
34.907,34.818
34.897,34.804
34.883,34.79
34.864,34.776
34.842,34.763
34.815,34.748
34.785,34.733
34.753,34.717
34.719,34.701
34.684,34.685
34.649,34.671
34.616,34.658
34.585,34.649
34.559,34.643
34.537,34.641
34.52,34.643
34.508,34.646
34.5,34.65
34.496,34.653
34.496,34.653
34.498,34.652
34.501,34.649
34.506,34.647
34.512,34.646
34.517,34.647
34.521,34.651
34.521,34.661
34.519,34.675
34.512,34.694
34.501,34.719
34.485,34.75
34.466,34.788
34.442,34.832
34.415,34.884
34.387,34.943
34.359,35.009
34.332,35.083
34.307,35.161
34.284,35.245
34.263,35.331
34.245,35.418
34.231,35.504
34.219,35.587
34.209,35.666
34.203,35.739
34.199,35.804
34.197,35.86
34.195,35.906
34.193,35.941
34.19,35.967
34.185,35.983
34.18,35.99
34.174,35.99
34.167,35.984
34.162,35.972
34.16,35.957
34.161,35.937
34.166,35.915
34.179,35.889
34.199,35.859
34.23,35.826
34.272,35.79
34.326,35.753
34.393,35.716
34.473,35.679
34.565,35.645
34.668,35.614
34.781,35.588
34.902,35.565
35.03,35.546
35.164,35.53
35.3,35.515
35.436,35.5
35.57,35.486
35.698,35.471
35.818,35.455
35.928,35.438
36.026,35.422
36.111,35.405
36.182,35.389
36.239,35.374
36.281,35.359
36.31,35.345
36.326,35.33
36.33,35.314
36.323,35.297
36.307,35.28
36.284,35.263
36.255,35.247
36.221,35.234
36.184,35.224
36.145,35.218
36.104,35.215
36.063,35.216
36.023,35.221
35.986,35.228
35.952,35.237
35.923,35.247
35.899,35.258
35.88,35.269
35.865,35.28
35.855,35.29
35.847,35.3
35.842,35.309
35.838,35.317
35.834,35.323
35.83,35.328
35.824,35.332
35.816,35.336
35.803,35.34
35.787,35.345
35.765,35.349
35.74,35.352
35.712,35.353
35.682,35.351
35.65,35.346
35.618,35.337
35.587,35.325
35.556,35.311
35.527,35.295
35.5,35.279
35.477,35.264
35.458,35.25
35.443,35.238
35.434,35.226
35.428,35.212
35.427,35.197
35.429,35.178
35.434,35.158
35.441,35.135
35.45,35.112
35.46,35.089
35.471,35.069
35.482,35.051
35.491,35.036
35.497,35.023
35.5,35.011
35.5,35
35.497,34.987
35.49,34.973
35.479,34.957
35.466,34.94
35.451,34.921
35.432,34.903
35.413,34.885
35.393,34.868
35.372,34.852
35.352,34.838
35.333,34.825
35.315,34.813
35.299,34.802
35.284,34.791
35.27,34.78
35.258,34.769
35.246,34.759
35.236,34.748
35.226,34.737
35.215,34.725
35.204,34.713
35.191,34.701
35.176,34.688
35.16,34.676
35.14,34.666
35.118,34.657
35.092,34.651
35.062,34.647
35.029,34.645
34.992,34.644
34.954,34.645
34.916,34.646
34.878,34.648
34.841,34.653
34.806,34.66
34.774,34.671
34.744,34.689
34.718,34.714
34.696,34.747
34.677,34.789
34.662,34.839
34.649,34.897
34.638,34.96
34.63,35.029
34.623,35.102
34.618,35.179
34.613,35.26
34.608,35.343
34.603,35.429
34.597,35.516
34.591,35.603
34.582,35.689
34.571,35.769
34.556,35.842
34.538,35.906
34.516,35.959
34.491,36.002
34.464,36.035
34.435,36.059
34.405,36.074
34.376,36.081
34.348,36.082
34.322,36.077
34.299,36.066
34.279,36.05
34.263,36.027
34.251,35.997
34.243,35.958
34.24,35.912
34.241,35.86
34.246,35.806
34.252,35.751
34.259,35.698
34.264,35.65
34.268,35.607
34.269,35.569
34.267,35.539
34.263,35.514
34.256,35.495
34.246,35.481
34.234,35.471
34.218,35.464
34.199,35.459
34.178,35.454
34.155,35.45
34.131,35.444
34.107,35.436
34.083,35.427
34.061,35.416
34.041,35.404
34.023,35.392
34.007,35.381
33.994,35.37
33.985,35.36
33.979,35.352
33.978,35.344
33.983,35.337
33.995,35.33
34.014,35.325
34.042,35.32
34.078,35.316
34.123,35.315
34.176,35.317
34.24,35.323
34.313,35.333
34.396,35.346
34.488,35.361
34.588,35.376
34.694,35.392
34.806,35.407
34.922,35.421
35.039,35.435
35.156,35.448
35.273,35.46
35.386,35.471
35.495,35.482
35.599,35.493
35.696,35.503
35.787,35.512
35.869,35.519
35.944,35.522
36.011,35.522
36.069,35.519
36.117,35.511
36.156,35.501
36.187,35.487
36.207,35.472
36.219,35.456
36.221,35.44
36.215,35.423
36.202,35.406
36.182,35.389
36.156,35.37
36.126,35.35
36.091,35.329
36.054,35.306
36.014,35.282
35.974,35.257
35.933,35.233
35.892,35.21
35.852,35.188
35.814,35.167
35.778,35.148
35.746,35.13
35.718,35.113
35.692,35.098
35.67,35.084
35.652,35.071
35.637,35.059
35.626,35.046
35.618,35.034
35.612,35.023
35.607,35.011
35.603,34.998
35.6,34.985
35.595,34.971
35.59,34.957
35.583,34.943
35.575,34.929
35.566,34.915
35.554,34.902
35.539,34.888
35.522,34.873
35.502,34.858
35.481,34.843
35.459,34.828
35.438,34.813
35.42,34.801
35.402,34.791
35.387,34.783
35.375,34.777
35.365,34.773
35.358,34.769
35.353,34.765
35.351,34.76
35.351,34.754
35.353,34.747
35.357,34.74
35.363,34.736
35.371,34.736
35.381,34.742
35.392,34.755
35.402,34.776
35.412,34.806
35.419,34.843
35.424,34.889
35.426,34.942
35.425,35.002
35.42,35.069
35.411,35.142
35.397,35.221
35.379,35.305
35.357,35.392
35.33,35.482
35.301,35.574
35.269,35.664
35.236,35.751
35.204,35.834
35.174,35.911
35.144,35.979
35.116,36.039
35.089,36.09
35.065,36.132
35.044,36.163
35.024,36.185
35.006,36.198
34.99,36.202
34.974,36.197
34.959,36.186
34.944,36.168
34.928,36.145
34.911,36.117
34.893,36.087
34.875,36.055
34.856,36.027
34.836,36.007
34.814,35.995
34.79,35.992
34.765,35.994
34.74,36
34.713,36.005
34.686,36.008
34.659,36.006
34.633,35.998
34.609,35.981
34.586,35.957
34.565,35.923
34.545,35.881
34.527,35.831
34.511,35.774
34.497,35.712
34.486,35.648
34.477,35.585
34.472,35.524
34.469,35.467
34.469,35.417
34.469,35.375
34.469,35.342
34.468,35.318
34.465,35.301
34.46,35.29
34.452,35.284
34.441,35.282
34.427,35.281
34.409,35.283
34.389,35.288
34.367,35.295
34.343,35.305
34.318,35.318
34.293,35.334
34.269,35.352
34.247,35.37
34.228,35.388
34.211,35.405
34.198,35.418
34.188,35.429
34.181,35.436
34.176,35.441
34.175,35.445
34.175,35.449
34.176,35.452
34.177,35.456
34.179,35.46
34.18,35.465
34.179,35.469
34.176,35.472
34.171,35.473
34.162,35.473
34.149,35.47
34.132,35.464
34.113,35.456
34.092,35.445
34.071,35.431
34.049,35.415
34.027,35.397
34.006,35.377
33.985,35.356
33.967,35.334
33.951,35.313
33.939,35.293
33.932,35.274
33.932,35.254
33.939,35.235
33.956,35.215
33.983,35.194
34.021,35.171
34.071,35.146
34.134,35.122
34.209,35.098
34.296,35.076
34.395,35.058
34.503,35.042
34.619,35.03
34.741,35.019
34.866,35.009
34.992,34.998
35.115,34.986
35.234,34.973
35.347,34.958
35.453,34.943
35.55,34.928
35.638,34.915
35.717,34.904
35.785,34.894
35.844,34.886
35.893,34.877
35.934,34.866
35.964,34.853
35.979,34.838
35.978,34.821
35.962,34.802
35.933,34.782
35.896,34.763
35.855,34.746
35.813,34.73
35.774,34.717
35.74,34.706
35.713,34.697
35.693,34.689
35.68,34.682
35.672,34.676
35.667,34.67
35.666,34.665
35.665,34.66
35.664,34.656
35.661,34.652
35.656,34.651
35.647,34.652
35.634,34.656
35.618,34.664
35.598,34.677
35.576,34.697
35.551,34.725
35.525,34.762
35.498,34.808
35.471,34.862
35.445,34.923
35.419,34.99
35.395,35.062
35.374,35.138
35.357,35.218
35.344,35.301
35.334,35.388
35.329,35.477
35.326,35.568
35.326,35.657
35.328,35.742
35.33,35.821
35.332,35.893
35.333,35.955
35.334,36.008
35.333,36.051
35.332,36.084
35.33,36.11
35.327,36.128
35.323,36.14
35.317,36.146
35.311,36.146
35.304,36.14
35.297,36.129
35.292,36.113
35.29,36.093
35.289,36.068
35.291,36.041
35.295,36.01
35.3,35.977
35.305,35.942
35.311,35.907
35.318,35.871
35.324,35.835
35.329,35.801
35.333,35.768
35.335,35.737
35.334,35.708
35.33,35.68
35.323,35.653
35.314,35.626
35.301,35.598
35.285,35.57
35.264,35.542
35.24,35.513
35.211,35.485
35.178,35.458
35.141,35.433
35.102,35.41
35.063,35.39
35.025,35.372
34.99,35.356
34.958,35.342
34.929,35.33
34.903,35.32
34.88,35.311
34.86,35.306
34.843,35.303
34.829,35.304
34.818,35.308
34.809,35.317
34.8,35.329
34.791,35.344
34.781,35.361
34.769,35.379
34.755,35.397
34.74,35.414
34.723,35.432
34.704,35.45
34.684,35.467
34.661,35.483
34.638,35.498
34.613,35.512
34.589,35.523
34.565,35.532
34.541,35.538
34.518,35.54
34.497,35.54
34.477,35.538
34.459,35.533
34.444,35.526
34.432,35.518
34.422,35.508
34.413,35.496
34.407,35.483
34.402,35.47
34.398,35.455
34.395,35.44
34.392,35.425
34.39,35.409
34.388,35.392
34.385,35.375
34.382,35.357
34.376,35.337
34.367,35.316
34.356,35.293
34.341,35.271
34.324,35.249
34.305,35.228
34.285,35.209
34.263,35.193
34.241,35.179
34.218,35.168
34.197,35.158
34.176,35.149
34.157,35.138
34.14,35.125
34.126,35.111
34.115,35.093
34.106,35.075
34.1,35.055
34.096,35.036
34.094,35.019
34.094,35.004
34.095,34.991
34.097,34.981
34.102,34.972
34.111,34.963
34.123,34.953
34.137,34.941
34.151,34.927
34.162,34.913
34.168,34.898
34.168,34.883
34.161,34.869
34.148,34.856
34.128,34.844
34.103,34.834
34.072,34.825
34.039,34.817
34.004,34.81
33.968,34.802
33.934,34.794
33.901,34.785
33.873,34.776
33.85,34.768
33.835,34.759
33.83,34.751
33.834,34.744
33.851,34.739
33.881,34.737
33.924,34.738
33.98,34.742
34.048,34.75
34.13,34.761
34.222,34.777
34.324,34.798
34.434,34.823
34.548,34.854
34.665,34.891
34.782,34.935
34.897,34.988
35.009,35.048
35.116,35.118
35.219,35.197
35.316,35.285
35.407,35.378
35.491,35.476
35.568,35.576
35.637,35.673
35.698,35.767
35.752,35.854
35.797,35.935
35.835,36.008
35.866,36.075
35.888,36.135
35.903,36.19
35.912,36.237
35.915,36.278
35.912,36.31
35.904,36.333
35.891,36.347
35.872,36.35
35.848,36.345
35.818,36.331
35.782,36.311
35.74,36.284
35.695,36.254
35.647,36.22
35.597,36.185
35.548,36.148
35.5,36.11
35.455,36.072
35.412,36.034
35.373,35.996
35.339,35.958
35.309,35.92
35.283,35.883
35.26,35.846
35.241,35.81
35.224,35.775
35.209,35.74
35.195,35.707
35.185,35.674
35.177,35.644
35.172,35.615
35.169,35.588
35.167,35.562
35.166,35.538
35.164,35.515
35.161,35.492
35.158,35.47
35.154,35.449
35.149,35.429
35.143,35.411
35.137,35.397
35.131,35.387
35.125,35.383
35.119,35.383
35.114,35.388
35.109,35.397
35.107,35.409
35.106,35.421
35.108,35.433
35.113,35.444
35.121,35.453
35.131,35.46
35.143,35.466
35.156,35.47
35.17,35.475
35.183,35.48
35.196,35.486
35.208,35.494
35.219,35.502
35.228,35.511
35.234,35.52
35.236,35.527
35.234,35.532
35.228,35.534
35.217,35.534
35.203,35.531
35.184,35.526
35.163,35.521
35.138,35.516
35.112,35.511
35.082,35.506
35.05,35.502
35.016,35.496
34.982,35.488
34.949,35.477
34.917,35.463
34.889,35.445
34.862,35.423
34.839,35.399
34.82,35.373
34.803,35.346
34.788,35.319
34.777,35.293
34.767,35.268
34.759,35.244
34.751,35.221
34.743,35.199
34.733,35.177
34.72,35.155
34.706,35.134
34.688,35.112
34.668,35.09
34.645,35.069
34.62,35.048
34.593,35.028
34.565,35.009
34.537,34.992
34.509,34.977
34.482,34.965
34.455,34.954
34.431,34.944
34.408,34.934
34.388,34.923
34.371,34.91
34.357,34.895
34.347,34.879
34.339,34.863
34.335,34.848
34.333,34.835
34.333,34.824
34.334,34.817
34.336,34.813
34.338,34.81
34.339,34.809
34.338,34.808
34.336,34.81
34.333,34.812
34.327,34.815
34.319,34.817
34.305,34.818
34.288,34.819
34.267,34.82
34.244,34.82
34.222,34.819
34.201,34.816
34.183,34.812
34.167,34.804
34.153,34.793
34.142,34.78
34.133,34.764
34.128,34.746
34.126,34.729
34.128,34.714
34.133,34.702
34.14,34.696
34.149,34.698
34.157,34.708
34.166,34.727
34.173,34.757
34.179,34.797
34.182,34.847
34.182,34.909
34.179,34.98
34.173,35.061
34.163,35.15
34.15,35.245
34.134,35.345
34.117,35.449
34.099,35.555
34.083,35.662
34.069,35.768
34.06,35.871
34.057,35.971
34.061,36.065
34.074,36.153
34.098,36.231
34.133,36.299
34.18,36.355
34.241,36.398
34.314,36.428
34.4,36.444
34.495,36.449
34.598,36.442
34.708,36.427
34.822,36.404
34.939,36.376
35.056,36.344
35.17,36.308
35.28,36.269
35.383,36.227
35.478,36.183
35.563,36.137
35.636,36.09
35.696,36.042
35.744,35.996
35.779,35.951
35.802,35.91
35.813,35.872
35.815,35.84
35.809,35.811
35.795,35.786
35.776,35.762
35.752,35.739
35.726,35.717
35.697,35.693
35.667,35.669
35.637,35.644
35.608,35.62
35.579,35.596
35.55,35.573
35.522,35.553
35.495,35.536
35.468,35.522
35.443,35.511
35.419,35.502
35.394,35.495
35.369,35.489
35.343,35.483
35.314,35.477
35.283,35.473
35.249,35.47
35.212,35.47
35.174,35.472
35.135,35.477
35.096,35.486
35.06,35.497
35.025,35.511
34.992,35.527
34.963,35.544
34.938,35.562
34.916,35.578
34.9,35.592
34.888,35.605
34.882,35.617
34.881,35.626
34.885,35.633
34.893,35.64
34.905,35.644
34.921,35.648
34.94,35.651
34.963,35.651
34.987,35.651
35.011,35.647
35.036,35.642
35.06,35.633
35.082,35.622
35.102,35.608
35.12,35.592
35.133,35.575
35.142,35.557
35.147,35.538
35.148,35.518
35.144,35.498
35.138,35.478
35.13,35.456
35.12,35.435
35.11,35.412
35.1,35.385
35.091,35.35
35.083,35.305
35.077,35.254
35.073,35.2
35.07,35.145
35.068,35.093
35.066,35.047
35.064,35.01
35.061,34.982
35.057,34.964
35.051,34.956
35.043,34.955
35.032,34.959
35.02,34.967
35.003,34.976
34.983,34.985
34.959,34.993
34.932,34.999
34.901,35.003
34.868,35.004
34.832,35.004
34.796,35.002
34.76,34.998
34.724,34.991
34.691,34.982
34.661,34.969
34.635,34.952
34.614,34.931
34.598,34.908
34.588,34.883
34.581,34.859
34.577,34.837
34.577,34.817
34.578,34.801
34.579,34.789
34.581,34.781
34.581,34.775
34.58,34.77
34.577,34.765
34.573,34.76
34.566,34.755
34.558,34.749
34.546,34.744
34.532,34.74
34.515,34.74
34.496,34.743
34.475,34.751
34.455,34.764
34.434,34.785
34.416,34.814
34.4,34.852
34.386,34.899
34.374,34.958
34.365,35.027
34.358,35.107
34.353,35.196
34.351,35.292
34.351,35.395
34.353,35.501
34.358,35.61
34.365,35.719
34.373,35.828
34.383,35.934
34.392,36.036
34.401,36.133
34.408,36.223
34.414,36.305
34.416,36.376
34.415,36.437
34.409,36.485
34.399,36.522
34.384,36.548
34.364,36.564
34.34,36.571
34.314,36.572
34.287,36.565
34.26,36.552
34.234,36.533
34.21,36.507
34.188,36.474
34.17,36.434
34.156,36.389
34.147,36.341
34.144,36.29
34.148,36.24
34.16,36.19
34.18,36.142
34.208,36.097
34.244,36.055
34.288,36.016
34.339,35.98
34.398,35.946
34.465,35.914
34.54,35.884
34.622,35.856
34.71,35.83
34.803,35.805
34.899,35.782
34.997,35.761
35.096,35.74
35.194,35.721
35.29,35.702
35.383,35.685
35.472,35.668
35.555,35.652
35.631,35.637
35.699,35.623
35.759,35.61
35.811,35.598
35.856,35.587
35.892,35.579
35.921,35.574
35.942,35.572
35.957,35.574
35.965,35.58
35.967,35.59
35.963,35.603
35.952,35.618
35.936,35.633
35.914,35.649
35.887,35.663
35.854,35.676
35.818,35.689
35.777,35.702
35.733,35.716
35.686,35.73
35.638,35.745
35.588,35.761
35.539,35.776
35.489,35.788
35.441,35.797
35.395,35.802
35.351,35.803
35.31,35.799
35.271,35.791
35.236,35.78
35.206,35.766
35.18,35.749
35.158,35.729
35.141,35.706
35.128,35.682
35.119,35.656
35.112,35.629
35.109,35.602
35.107,35.576
35.108,35.55
35.111,35.525
35.115,35.499
35.119,35.474
35.123,35.449
35.127,35.424
35.13,35.398
35.132,35.372
35.133,35.347
35.134,35.322
35.135,35.298
35.136,35.275
35.137,35.253
35.139,35.231
35.142,35.208
35.147,35.184
35.155,35.159
35.164,35.133
35.176,35.106
35.19,35.08
35.206,35.055
35.224,35.033
35.243,35.013
35.263,34.997
35.287,34.983
35.318,34.972
35.356,34.962
35.398,34.95
35.441,34.937
35.48,34.922
35.514,34.904
35.539,34.885
35.552,34.866
35.552,34.846
35.539,34.828
35.513,34.812
35.475,34.798
35.427,34.786
35.37,34.776
35.307,34.768
35.24,34.759
35.171,34.749
35.103,34.739
35.038,34.729
34.978,34.72
34.925,34.711
34.879,34.706
34.841,34.705
34.812,34.708
34.792,34.718
34.779,34.735
34.772,34.759
34.771,34.792
34.774,34.834
34.778,34.886
34.783,34.946
34.787,35.015
34.788,35.093
34.787,35.18
34.781,35.273
34.77,35.373
34.755,35.478
34.736,35.587
34.714,35.698
34.689,35.81
34.662,35.922
34.634,36.03
34.605,36.135
34.576,36.232
34.549,36.32
34.523,36.397
34.501,36.463
34.482,36.518
34.466,36.561
34.455,36.594
34.446,36.617
34.442,36.63
34.44,36.635
34.44,36.632
34.443,36.622
34.448,36.606
34.455,36.583
34.461,36.554
34.467,36.519
34.471,36.481
34.473,36.439
34.472,36.396
34.467,36.352
34.458,36.308
34.445,36.266
34.429,36.226
34.409,36.188
34.387,36.154
34.363,36.121
34.338,36.09
34.313,36.06
34.289,36.029
34.268,35.999
34.25,35.969
34.237,35.939
34.231,35.91
34.233,35.881
34.244,35.855
34.264,35.83
34.294,35.809
34.334,35.789
34.385,35.773
34.447,35.757
34.52,35.743
34.602,35.73
34.692,35.718
34.79,35.706
34.892,35.696
34.998,35.687
35.105,35.681
35.211,35.679
35.314,35.68
35.414,35.685
35.507,35.694
35.594,35.707
35.671,35.722
35.737,35.739
35.793,35.757
35.839,35.775
35.876,35.791
35.905,35.806
35.927,35.819
35.941,35.831
35.949,35.84
35.952,35.846
35.951,35.85
35.946,35.852
35.937,35.851
35.926,35.847
35.912,35.841
35.896,35.832
35.878,35.822
35.858,35.809
35.835,35.796
35.811,35.78
35.785,35.764
35.757,35.748
35.728,35.731
35.697,35.715
35.664,35.697
35.63,35.679
35.595,35.66
35.559,35.64
35.522,35.618
35.484,35.595
35.445,35.571
35.407,35.546
35.37,35.521
35.334,35.495
35.299,35.468
35.267,35.441
35.238,35.414
35.212,35.388
35.191,35.364
35.174,35.341
35.162,35.319
35.154,35.299
35.151,35.28
35.151,35.261
35.155,35.243
35.161,35.225
35.169,35.206
35.179,35.188
35.189,35.168
35.2,35.149
35.211,35.13
35.222,35.112
35.231,35.095
35.239,35.079
35.246,35.063
35.253,35.048
35.259,35.033
35.264,35.018
35.269,35.001
35.275,34.985
35.28,34.969
35.287,34.954
35.293,34.941
35.301,34.929
35.309,34.919
35.318,34.91
35.326,34.903
35.334,34.894
35.339,34.885
35.341,34.873
35.336,34.859
35.323,34.843
35.301,34.828
35.272,34.813
35.236,34.801
35.196,34.794
35.155,34.793
35.113,34.799
35.071,34.813
35.032,34.833
34.996,34.862
34.965,34.898
34.941,34.943
34.921,34.997
34.907,35.06
34.898,35.133
34.892,35.215
34.89,35.305
34.89,35.403
34.892,35.508
34.895,35.618
34.899,35.731
34.902,35.847
34.905,35.961
34.906,36.073
34.905,36.18
34.902,36.28
34.897,36.372
34.891,36.453
34.881,36.523
34.868,36.581
34.853,36.627
34.835,36.661
34.814,36.686
34.79,36.702
34.764,36.71
34.735,36.71
34.705,36.704
34.674,36.69
34.642,36.671
34.61,36.646
34.578,36.615
34.548,36.58
34.519,36.542
34.494,36.501
34.472,36.46
34.453,36.418
34.438,36.373
34.428,36.328
34.422,36.281
34.421,36.236
34.422,36.192
34.425,36.152
34.43,36.114
34.434,36.079
34.438,36.047
34.441,36.016
34.442,35.986
34.441,35.957
34.439,35.929
34.436,35.902
34.432,35.877
34.426,35.854
34.419,35.835
34.413,35.82
34.41,35.807
34.411,35.797
34.419,35.788
34.436,35.779
34.463,35.769
34.501,35.758
34.552,35.748
34.614,35.74
34.689,35.734
34.775,35.732
34.872,35.734
34.978,35.74
35.089,35.75
35.205,35.763
35.322,35.778
35.439,35.793
35.554,35.809
35.666,35.823
35.773,35.836
35.872,35.848
35.96,35.859
36.038,35.868
36.103,35.876
36.155,35.882
36.193,35.887
36.217,35.891
36.227,35.893
36.225,35.894
36.212,35.892
36.189,35.889
36.157,35.883
36.118,35.874
36.073,35.862
36.025,35.848
35.976,35.83
35.926,35.811
35.879,35.79
35.835,35.768
35.795,35.747
35.759,35.725
35.727,35.702
35.699,35.679
35.674,35.655
35.653,35.629
35.635,35.602
35.618,35.573
35.602,35.545
35.585,35.517
35.568,35.489
35.549,35.464
35.528,35.44
35.503,35.418
35.475,35.397
35.445,35.376
35.413,35.356
35.382,35.335
35.351,35.314
35.321,35.293
35.292,35.271
35.264,35.25
35.239,35.23
35.219,35.21
35.203,35.189
35.193,35.169
35.19,35.149
35.194,35.129
35.204,35.11
35.219,35.09
35.239,35.07
35.263,35.051
35.29,35.032
35.321,35.015
35.353,34.998
35.385,34.983
35.417,34.969
35.447,34.956
35.474,34.944
35.497,34.932
35.517,34.921
35.533,34.91
35.544,34.9
35.551,34.89
35.553,34.88
35.548,34.87
35.538,34.859
35.523,34.849
35.502,34.839
35.478,34.828
35.452,34.818
35.425,34.808
35.398,34.799
35.372,34.791
35.349,34.786
35.329,34.785
35.312,34.788
35.299,34.796
35.29,34.811
35.285,34.832
35.282,34.861
35.28,34.898
35.279,34.946
35.276,35.004
35.272,35.074
35.265,35.154
35.255,35.245
35.242,35.345
35.226,35.452
35.206,35.562
35.183,35.674
35.158,35.784
35.129,35.889
35.098,35.989
35.064,36.083
35.03,36.169
34.996,36.248
34.963,36.318
34.931,36.379
34.901,36.431
34.873,36.473
34.847,36.505
34.824,36.527
34.804,36.54
34.789,36.543
34.777,36.537
34.771,36.524
34.767,36.503
34.766,36.475
34.765,36.442
34.764,36.403
34.762,36.361
34.757,36.316
34.751,36.271
34.743,36.227
34.732,36.184
34.719,36.144
34.704,36.106
34.686,36.069
34.666,36.034
34.644,35.998
34.621,35.963
34.598,35.927
34.576,35.891
34.555,35.856
34.537,35.823
34.52,35.792
34.508,35.763
34.5,35.737
34.497,35.715
34.501,35.694
34.512,35.676
34.531,35.66
34.559,35.645
34.595,35.63
34.64,35.616
34.692,35.602
34.754,35.588
34.824,35.576
34.902,35.566
34.988,35.559
35.082,35.555
35.182,35.554
35.286,35.557
35.393,35.564
35.501,35.574
35.608,35.586
35.713,35.599
35.813,35.612
35.908,35.623
35.996,35.633
36.076,35.642
36.148,35.65
36.211,35.658
36.264,35.666
36.307,35.675
36.342,35.685
36.369,35.695
36.387,35.704
36.398,35.711
36.402,35.715
36.399,35.716
36.39,35.712
36.374,35.705
36.353,35.695
36.327,35.682
36.299,35.668
36.267,35.652
36.233,35.635
36.197,35.616
36.158,35.596
36.117,35.575
36.074,35.551
36.03,35.526
35.985,35.501
35.94,35.476
35.895,35.451
35.851,35.427
35.807,35.404
35.764,35.382
35.723,35.361
35.685,35.341
35.649,35.322
35.618,35.302
35.59,35.282
35.566,35.262
35.545,35.24
35.527,35.218
35.511,35.195
35.499,35.17
35.489,35.145
35.483,35.119
35.48,35.092
35.479,35.066
35.48,35.04
35.483,35.015
35.486,34.991
35.491,34.968
35.496,34.946
35.501,34.924
35.506,34.903
35.511,34.882
35.516,34.862
35.522,34.842
35.527,34.822
35.532,34.804
35.537,34.788
35.542,34.773
35.547,34.761
35.552,34.75
35.557,34.74
35.562,34.732
35.568,34.725
35.573,34.717
35.578,34.71
35.583,34.703
35.588,34.695
35.594,34.687
35.599,34.677
35.605,34.666
35.61,34.654
35.614,34.641
35.615,34.628
35.615,34.615
35.612,34.605
35.607,34.597
35.598,34.593
35.586,34.594
35.57,34.6
35.549,34.612
35.523,34.632
35.493,34.661
35.459,34.7
35.421,34.749
35.383,34.809
35.343,34.88
35.305,34.961
35.269,35.05
35.236,35.145
35.205,35.245
35.177,35.347
35.152,35.45
35.132,35.552
35.115,35.651
35.101,35.748
35.092,35.839
35.086,35.926
35.081,36.006
35.077,36.078
35.072,36.141
35.065,36.195
35.056,36.238
35.045,36.271
35.031,36.292
35.014,36.304
34.994,36.305
34.97,36.297
34.942,36.282
34.912,36.26
34.879,36.233
34.846,36.202
34.815,36.169
34.785,36.134
34.759,36.099
34.737,36.065
34.718,36.032
34.703,36
34.691,35.969
34.682,35.937
34.677,35.906
34.675,35.874
34.677,35.842
34.682,35.81
34.689,35.779
34.697,35.75
34.707,35.722
34.718,35.697
34.73,35.675
34.743,35.654
34.76,35.634
34.781,35.615
34.808,35.595
34.841,35.576
34.881,35.556
34.93,35.537
34.988,35.518
35.055,35.5
35.13,35.484
35.216,35.471
35.31,35.461
35.413,35.453
35.522,35.449
35.636,35.448
35.753,35.449
35.871,35.451
35.988,35.453
36.102,35.456
36.211,35.46
36.313,35.463
36.406,35.467
36.489,35.472
36.561,35.478
36.62,35.487
36.666,35.499
36.699,35.512
36.719,35.527
36.727,35.542
36.723,35.555
36.708,35.566
36.682,35.573
36.648,35.576
36.607,35.575
36.56,35.571
36.51,35.564
36.457,35.555
36.403,35.546
36.349,35.535
36.298,35.524
36.249,35.511
36.205,35.498
36.166,35.483
36.131,35.465
36.102,35.446
36.078,35.424
36.059,35.402
36.044,35.379
36.032,35.355
36.023,35.333
36.016,35.311
36.011,35.29
36.005,35.27
35.999,35.252
35.991,35.234
35.981,35.217
35.968,35.2
35.953,35.183
35.936,35.165
35.918,35.147
35.898,35.129
35.877,35.11
35.856,35.092
35.834,35.073
35.813,35.054
35.792,35.035
35.772,35.018
35.754,35.001
35.74,34.986
35.73,34.971
35.725,34.958
35.725,34.945
35.73,34.932
35.739,34.918
35.753,34.904
35.769,34.888
35.788,34.871
35.809,34.853
35.831,34.835
35.853,34.817
35.873,34.8
35.891,34.784
35.906,34.769
35.916,34.754
35.921,34.74
35.923,34.726
35.92,34.712
35.912,34.699
35.9,34.685
35.883,34.672
35.861,34.659
35.834,34.649
35.804,34.641
35.771,34.635
35.736,34.632
35.702,34.631
35.669,34.632
35.637,34.634
35.607,34.636
35.58,34.64
35.556,34.646
35.536,34.655
35.519,34.669
35.505,34.69
35.494,34.719
35.484,34.757
35.475,34.804
35.466,34.858
35.455,34.921
35.442,34.99
35.426,35.064
35.407,35.144
35.385,35.229
35.36,35.319
35.332,35.412
35.3,35.509
35.266,35.607
35.232,35.705
35.196,35.8
35.16,35.891
35.125,35.976
35.09,36.053
35.057,36.12
35.028,36.177
35.004,36.225
34.983,36.263
34.967,36.292
34.956,36.311
34.949,36.322
34.945,36.324
34.942,36.318
34.942,36.305
34.942,36.285
34.943,36.26
34.943,36.231
34.943,36.198
34.94,36.163
34.935,36.125
34.928,36.086
34.919,36.045
34.907,36.003
34.892,35.961
34.875,35.92
34.855,35.881
34.833,35.845
34.809,35.814
34.785,35.787
34.762,35.763
34.74,35.743
34.722,35.725
34.709,35.707
34.7,35.689
34.698,35.67
34.703,35.649
34.718,35.628
34.743,35.606
34.78,35.585
34.83,35.565
34.893,35.547
34.969,35.53
35.058,35.516
35.158,35.504
35.267,35.494
35.384,35.486
35.507,35.48
35.633,35.477
35.76,35.474
35.885,35.473
36.005,35.472
36.118,35.472
36.223,35.473
36.317,35.475
36.401,35.478
36.474,35.483
36.533,35.489
36.58,35.496
36.615,35.503
36.638,35.51
36.651,35.516
36.657,35.521
36.655,35.524
36.648,35.525
36.638,35.525
36.625,35.526
36.61,35.528
36.593,35.533
36.574,35.538
36.554,35.546
36.533,35.553
36.512,35.56
36.491,35.563
36.47,35.564
36.45,35.56
36.43,35.553
36.41,35.542
36.391,35.529
36.371,35.514
36.35,35.497
36.328,35.48
36.305,35.463
36.281,35.444
36.257,35.425
36.233,35.405
36.208,35.384
36.182,35.362
36.156,35.34
36.13,35.316
36.103,35.292
36.077,35.267
36.053,35.243
36.031,35.218
36.011,35.194
35.993,35.171
35.978,35.148
35.966,35.126
35.958,35.105
35.953,35.085
35.953,35.067
35.955,35.051
35.959,35.035
35.964,35.02
35.97,35.004
35.975,34.989
35.979,34.973
35.983,34.957
35.984,34.942
35.985,34.926
35.983,34.911
35.98,34.897
35.975,34.884
35.969,34.872
35.963,34.861
35.957,34.849
35.95,34.838
35.944,34.826
35.937,34.815
35.93,34.803
35.923,34.792
35.916,34.783
35.909,34.775
35.902,34.767
35.894,34.761
35.885,34.754
35.876,34.747
35.867,34.738
35.857,34.729
35.845,34.718
35.832,34.707
35.816,34.697
35.799,34.689
35.778,34.684
35.755,34.684
35.729,34.69
35.699,34.703
35.667,34.724
35.632,34.754
35.594,34.792
35.555,34.839
35.514,34.895
35.474,34.959
35.434,35.032
35.396,35.113
35.359,35.2
35.326,35.294
35.296,35.392
35.269,35.494
35.247,35.595
35.228,35.695
35.212,35.791
35.201,35.88
35.192,35.961
35.186,36.032
35.18,36.092
35.175,36.142
35.168,36.181
35.159,36.211
35.148,36.231
35.135,36.243
35.121,36.246
35.104,36.242
35.087,36.23
35.067,36.213
35.047,36.19
35.026,36.162
35.004,36.131
34.982,36.097
34.96,36.059
34.938,36.02
34.915,35.98
34.893,35.939
34.87,35.898
34.848,35.859
34.828,35.82
34.81,35.783
34.793,35.747
34.779,35.714
34.767,35.682
34.756,35.651
34.748,35.623
34.741,35.595
34.737,35.568
34.736,35.542
34.737,35.516
34.741,35.491
34.748,35.467
34.757,35.445
34.768,35.428
34.783,35.413
34.802,35.401
34.825,35.391
34.855,35.382
34.894,35.372
34.942,35.361
34.999,35.349
35.067,35.335
35.145,35.32
35.234,35.304
35.331,35.287
35.437,35.272
35.549,35.26
35.665,35.251
35.784,35.246
35.902,35.245
36.017,35.248
36.128,35.253
36.232,35.26
36.328,35.268
36.414,35.274
36.49,35.279
36.555,35.282
36.608,35.284
36.649,35.285
36.679,35.285
36.697,35.286
36.705,35.288
36.703,35.289
36.692,35.291
36.673,35.294
36.649,35.295
36.619,35.293
36.585,35.287
36.549,35.277
36.511,35.263
36.473,35.245
36.437,35.224
36.404,35.2
36.374,35.175
36.348,35.149
36.325,35.124
36.305,35.099
36.288,35.073
36.274,35.047
36.263,35.02
36.256,34.992
36.251,34.963
36.25,34.933
36.249,34.904
36.248,34.876
36.245,34.85
36.239,34.825
36.229,34.802
36.216,34.781
36.199,34.762
36.178,34.745
36.153,34.728
36.125,34.712
36.093,34.696
36.058,34.68
36.022,34.663
35.987,34.645
35.954,34.627
35.924,34.609
35.899,34.592
35.878,34.576
35.86,34.561
35.847,34.548
35.838,34.537
35.832,34.528
35.83,34.519
35.831,34.511
35.837,34.502
35.845,34.491
35.855,34.478
35.867,34.465
35.88,34.45
35.894,34.436
35.906,34.423
35.916,34.412
35.924,34.404
35.927,34.397
35.926,34.392
35.919,34.388
35.907,34.383
35.888,34.377
35.865,34.37
35.837,34.361
35.806,34.351
35.772,34.34
35.738,34.33
35.703,34.32
35.67,34.312
35.638,34.307
35.608,34.305
35.581,34.308
35.557,34.316
35.536,34.328
35.518,34.346
35.503,34.369
35.489,34.399
35.477,34.436
35.465,34.482
35.453,34.537
35.44,34.602
35.425,34.676
35.409,34.761
35.392,34.854
35.373,34.954
35.352,35.06
35.327,35.169
35.3,35.281
35.27,35.391
35.237,35.498
35.202,35.599
35.167,35.693
35.132,35.779
35.099,35.854
35.067,35.918
35.038,35.97
35.012,36.01
34.989,36.039
34.97,36.057
34.953,36.064
34.941,36.063
34.932,36.054
34.927,36.036
34.926,36.012
34.928,35.983
34.933,35.949
34.94,35.913
34.947,35.875
34.953,35.837
34.957,35.798
34.96,35.762
34.959,35.727
34.955,35.694
34.947,35.664
34.933,35.636
34.915,35.609
34.891,35.584
34.862,35.56
34.831,35.538
34.797,35.517
34.762,35.497
34.727,35.479
34.694,35.463
34.663,35.45
34.635,35.437
34.611,35.426
34.59,35.414
34.574,35.4
34.563,35.383
34.557,35.365
34.556,35.346
34.56,35.326
34.567,35.306
34.577,35.288
34.59,35.273
34.606,35.26
34.626,35.249
34.649,35.241
34.677,35.234
34.709,35.229
34.747,35.225
34.791,35.223
34.842,35.221
34.9,35.222
34.966,35.224
35.039,35.229
35.121,35.237
35.211,35.246
35.308,35.256
35.411,35.266
35.518,35.275
35.628,35.283
35.739,35.289
35.849,35.294
35.957,35.298
36.063,35.302
36.163,35.304
36.256,35.305
36.34,35.305
36.416,35.302
36.481,35.296
36.536,35.287
36.579,35.274
36.612,35.26
36.634,35.244
36.646,35.227
36.646,35.21
36.637,35.194
36.618,35.177
36.59,35.161
36.556,35.143
36.518,35.124
36.476,35.104
36.433,35.083
36.389,35.062
36.346,35.04
36.306,35.021
36.269,35.003
36.237,34.986
36.209,34.97
36.186,34.954
36.169,34.936
36.155,34.916
36.145,34.894
36.138,34.87
36.133,34.846
36.13,34.823
36.129,34.801
36.128,34.782
36.126,34.766
36.122,34.751
36.116,34.738
36.107,34.726
36.093,34.711
36.077,34.695
36.057,34.676
36.034,34.655
36.008,34.634
35.981,34.613
35.954,34.594
35.926,34.576
35.899,34.559
35.873,34.545
35.849,34.531
35.829,34.519
35.813,34.507
35.802,34.497
35.796,34.487
35.795,34.478
35.798,34.471
35.806,34.465
35.816,34.46
35.829,34.457
35.843,34.454
35.858,34.452
35.874,34.45
35.887,34.449
35.899,34.449
35.907,34.452
35.91,34.459
35.909,34.47
35.903,34.488
35.892,34.513
35.876,34.545
35.857,34.584
35.833,34.631
35.807,34.685
35.777,34.747
35.746,34.817
35.714,34.894
35.681,34.978
35.649,35.068
35.618,35.163
35.589,35.26
35.562,35.358
35.537,35.452
35.514,35.542
35.493,35.626
35.475,35.703
35.459,35.772
35.446,35.835
35.436,35.89
35.427,35.938
35.419,35.979
35.41,36.011
35.4,36.035
35.387,36.05
35.371,36.056
35.353,36.052
35.332,36.039
35.308,36.02
35.28,35.994
35.25,35.964
35.218,35.932
35.185,35.898
35.15,35.865
35.116,35.832
35.082,35.801
35.05,35.771
35.021,35.742
34.996,35.714
34.974,35.686
34.956,35.658
34.943,35.629
34.934,35.601
34.928,35.574
34.925,35.549
34.925,35.525
34.928,35.504
34.933,35.486
34.939,35.471
34.944,35.458
34.947,35.446
34.947,35.433
34.942,35.42
34.935,35.405
34.924,35.388
34.911,35.369
34.894,35.349
34.875,35.329
34.854,35.31
34.831,35.293
34.806,35.277
34.78,35.264
34.753,35.254
34.731,35.246
34.722,35.241
34.726,35.237
34.743,35.234
34.769,35.231
34.798,35.229
34.827,35.227
34.851,35.226
34.867,35.226
34.875,35.228
34.874,35.231
34.865,35.235
34.846,35.241
34.82,35.248
34.788,35.257
34.753,35.265
34.717,35.273
34.684,35.28
34.656,35.284
34.636,35.287
34.625,35.286
34.627,35.282
34.641,35.276
34.67,35.268
34.713,35.259
34.771,35.248
34.842,35.237
34.925,35.226
35.02,35.215
35.124,35.202
35.234,35.187
35.348,35.17
35.464,35.151
35.578,35.13
35.69,35.106
35.796,35.082
35.894,35.058
35.983,35.035
36.063,35.013
36.132,34.994
36.19,34.977
36.237,34.962
36.272,34.948
36.295,34.937
36.308,34.936
36.311,34.946
36.305,34.966
36.29,34.993
36.267,35.023
36.238,35.054
36.202,35.081
36.163,35.101
36.121,35.112
36.08,35.112
36.039,35.1
36,35.077
35.965,35.042
35.934,34.997
35.907,34.943
35.885,34.882
35.868,34.818
35.858,34.753
35.852,34.689
35.851,34.631
35.851,34.578
35.853,34.532
35.855,34.494
35.856,34.464
35.855,34.442
35.852,34.427
35.845,34.418
35.834,34.415
35.819,34.417
35.8,34.423
35.778,34.432
35.751,34.445
35.722,34.459
35.692,34.477
35.66,34.497
35.629,34.522
35.598,34.551
35.569,34.586
35.542,34.628
35.519,34.677
35.499,34.733
35.484,34.796
35.474,34.866
35.469,34.943
35.469,35.026
35.474,35.114
35.484,35.207
35.498,35.302
35.515,35.398
35.534,35.495
35.554,35.59
35.574,35.682
35.592,35.769
35.608,35.849
35.621,35.921
35.63,35.984
35.634,36.035
35.632,36.075
35.624,36.103
35.609,36.121
35.59,36.129
35.565,36.128
35.537,36.12
35.505,36.105
35.472,36.086
35.437,36.062
35.402,36.034
35.368,36.003
35.334,35.968
35.302,35.932
35.273,35.895
35.246,35.858
35.223,35.822
35.203,35.789
35.185,35.759
35.169,35.733
35.156,35.71
35.145,35.691
35.135,35.674
35.125,35.659
35.116,35.644
35.106,35.628
35.095,35.612
35.082,35.594
35.066,35.576
35.047,35.558
35.026,35.541
35.003,35.525
34.979,35.511
34.955,35.498
34.93,35.485
34.905,35.472
34.879,35.458
34.853,35.442
34.828,35.424
34.805,35.405
34.784,35.387
34.766,35.371
34.751,35.357
34.738,35.347
34.727,35.341
34.718,35.338
34.711,35.338
34.705,35.341
34.702,35.346
34.7,35.353
34.699,35.36
34.699,35.368
34.7,35.376
34.701,35.384
34.7,35.392
34.697,35.4
34.691,35.411
34.683,35.424
34.671,35.441
34.657,35.462
34.639,35.485
34.619,35.507
34.595,35.528
34.57,35.545
34.543,35.554
34.514,35.555
34.486,35.547
34.46,35.53
34.438,35.506
34.42,35.475
34.406,35.44
34.397,35.403
34.392,35.365
34.391,35.328
34.392,35.293
34.396,35.259
34.401,35.226
34.406,35.194
34.412,35.163
34.416,35.134
34.418,35.105
34.418,35.079
34.417,35.056
34.415,35.036
34.415,35.019
34.418,35.003
34.425,34.99
34.439,34.978
34.461,34.967
34.491,34.957
34.531,34.946
34.582,34.936
34.644,34.925
34.717,34.912
34.8,34.898
34.893,34.883
34.992,34.866
35.096,34.849
35.202,34.831
35.309,34.814
35.415,34.797
35.518,34.783
35.616,34.77
35.707,34.759
35.789,34.748
35.86,34.737
35.92,34.723
35.968,34.707
36.004,34.689
36.029,34.668
36.043,34.647
36.048,34.628
36.043,34.61
36.031,34.596
36.013,34.586
35.989,34.58
35.961,34.577
35.93,34.576
35.897,34.575
35.864,34.574
35.832,34.574
35.802,34.576
35.775,34.583
35.751,34.595
35.73,34.616
35.713,34.647
35.699,34.687
35.688,34.737
35.68,34.797
35.675,34.867
35.671,34.944
35.667,35.028
35.663,35.118
35.657,35.213
35.648,35.313
35.638,35.415
35.624,35.519
35.608,35.622
35.589,35.722
35.568,35.818
35.545,35.908
35.519,35.99
35.491,36.064
35.462,36.129
35.433,36.184
35.404,36.23
35.378,36.266
35.354,36.29
35.333,36.305
35.317,36.309
35.306,36.303
35.3,36.29
35.298,36.27
35.301,36.244
35.308,36.216
35.319,36.185
35.332,36.153
35.347,36.12
35.362,36.088
35.377,36.055
35.391,36.024
35.403,35.994
35.413,35.966
35.419,35.94
35.422,35.918
35.42,35.898
35.415,35.881
35.406,35.867
35.393,35.854
35.377,35.841
35.358,35.829
35.337,35.815
35.314,35.8
35.291,35.782
35.267,35.761
35.244,35.738
35.222,35.714
35.202,35.688
35.184,35.663
35.168,35.637
35.154,35.613
35.143,35.59
35.135,35.568
35.129,35.549
35.125,35.532
35.121,35.517
35.116,35.505
35.11,35.495
35.101,35.487
35.089,35.481
35.074,35.477
35.055,35.474
35.033,35.474
35.008,35.477
34.978,35.482
34.945,35.49
34.909,35.5
34.871,35.51
34.832,35.52
34.795,35.526
34.759,35.53
34.727,35.53
34.698,35.527
34.672,35.522
34.649,35.516
34.63,35.509
34.614,35.502
34.601,35.497
34.593,35.493
34.587,35.489
34.585,35.486
34.584,35.481
34.585,35.473
34.586,35.462
34.586,35.448
34.587,35.43
34.586,35.411
34.584,35.392
34.58,35.372
34.573,35.353
34.563,35.335
34.549,35.318
34.533,35.303
34.515,35.287
34.497,35.271
34.477,35.253
34.459,35.232
34.441,35.21
34.424,35.186
34.408,35.161
34.394,35.136
34.382,35.112
34.371,35.089
34.362,35.068
34.353,35.049
34.343,35.032
34.33,35.017
34.316,35.003
34.301,34.989
34.284,34.974
34.268,34.958
34.252,34.941
34.239,34.922
34.229,34.901
34.223,34.88
34.223,34.858
34.228,34.835
34.239,34.812
34.257,34.791
34.282,34.771
34.313,34.754
34.351,34.74
34.397,34.727
34.45,34.716
34.512,34.705
34.583,34.695
34.661,34.685
34.746,34.674
34.837,34.664
34.932,34.655
35.031,34.646
35.132,34.639
35.232,34.633
35.33,34.629
35.423,34.625
35.51,34.623
35.589,34.621
35.66,34.619
35.72,34.618
35.77,34.618
35.809,34.621
35.837,34.628
35.856,34.64
35.864,34.659
35.862,34.686
35.851,34.722
35.832,34.769
35.806,34.827
35.774,34.894
35.737,34.97
35.697,35.053
35.655,35.142
35.612,35.236
35.571,35.334
35.533,35.434
35.498,35.537
35.467,35.64
35.441,35.742
35.42,35.842
35.404,35.938
35.392,36.03
35.382,36.115
35.376,36.191
35.37,36.257
35.365,36.312
35.36,36.355
35.355,36.386
35.348,36.406
35.34,36.415
35.33,36.416
35.318,36.408
35.305,36.394
35.289,36.374
35.271,36.349
35.252,36.319
35.232,36.285
35.211,36.248
35.191,36.208
35.171,36.167
35.154,36.126
35.138,36.088
35.126,36.052
35.118,36.021
35.114,35.995
35.114,35.973
35.118,35.957
35.128,35.945
35.14,35.936
35.155,35.93
35.173,35.924
35.191,35.917
35.209,35.908
35.225,35.898
35.239,35.886
35.25,35.872
35.257,35.858
35.261,35.842
35.26,35.826
35.255,35.81
35.247,35.793
35.235,35.777
35.221,35.76
35.204,35.743
35.186,35.727
35.165,35.709
35.143,35.691
35.119,35.674
35.094,35.656
35.07,35.641
35.046,35.627
35.023,35.616
35,35.607
34.98,35.601
34.961,35.598
34.945,35.597
34.931,35.597
34.92,35.598
34.912,35.6
34.905,35.601
34.9,35.601
34.894,35.6
34.888,35.598
34.88,35.594
34.87,35.589
34.856,35.584
34.838,35.58
34.815,35.577
34.789,35.575
34.76,35.574
34.73,35.572
34.699,35.568
34.668,35.562
34.639,35.553
34.611,35.541
34.585,35.525
34.561,35.507
34.54,35.488
34.523,35.468
34.509,35.448
34.498,35.429
34.491,35.411
34.486,35.393
34.483,35.374
34.483,35.353
34.486,35.329
34.492,35.303
34.499,35.275
34.506,35.245
34.513,35.215
34.518,35.184
34.52,35.153
34.518,35.123
34.513,35.094
34.504,35.068
34.493,35.045
34.48,35.023
34.464,35.004
34.445,34.987
34.424,34.97
34.401,34.955
34.379,34.939
34.357,34.924
34.337,34.909
34.319,34.893
34.304,34.878
34.292,34.863
34.284,34.85
34.278,34.838
34.274,34.828
34.272,34.818
34.273,34.808
34.274,34.798
34.277,34.785
34.279,34.771
34.279,34.754
34.278,34.737
34.275,34.718
34.27,34.699
34.264,34.682
34.256,34.667
34.248,34.654
34.241,34.644
34.237,34.633
34.237,34.618
34.242,34.598
34.254,34.574
34.274,34.546
34.302,34.518
34.339,34.49
34.386,34.465
34.442,34.445
34.509,34.43
34.584,34.422
34.667,34.419
34.756,34.422
34.85,34.43
34.946,34.441
35.045,34.456
35.146,34.473
35.246,34.492
35.342,34.514
35.429,34.538
35.506,34.567
35.57,34.6
35.618,34.639
35.651,34.685
35.668,34.738
35.67,34.799
35.659,34.867
35.637,34.943
35.606,35.026
35.568,35.115
35.524,35.208
35.478,35.304
35.431,35.401
35.385,35.497
35.342,35.591
35.303,35.681
35.269,35.767
35.239,35.847
35.214,35.921
35.194,35.988
35.179,36.046
35.167,36.095
35.159,36.134
35.154,36.161
35.151,36.177
35.149,36.183
35.148,36.18
35.144,36.17
35.138,36.154
35.13,36.134
35.117,36.11
35.101,36.085
35.08,36.058
35.056,36.029
35.029,36
35,35.97
34.971,35.939
34.942,35.909
34.913,35.88
34.887,35.854
34.864,35.83
34.844,35.808
34.829,35.789
34.818,35.773
34.813,35.758
34.812,35.744
34.817,35.731
34.825,35.72
34.837,35.709
34.852,35.698
34.869,35.688
34.888,35.679
34.907,35.67
34.925,35.66
34.94,35.649
34.952,35.636
34.96,35.622
34.965,35.607
34.966,35.591
34.963,35.575
34.956,35.56
34.945,35.546
34.932,35.534
34.916,35.522
34.896,35.51
34.875,35.5
34.852,35.489
34.83,35.48
34.809,35.472
34.789,35.467
34.771,35.464
34.756,35.464
34.743,35.468
34.732,35.475
34.723,35.483
34.715,35.49
34.709,35.495
34.703,35.498
34.698,35.498
34.693,35.495
34.687,35.49
34.678,35.484
34.668,35.476
34.655,35.469
34.639,35.462
34.62,35.455
34.597,35.449
34.572,35.443
34.544,35.436
34.514,35.427
34.483,35.417
34.45,35.405
34.417,35.391
34.385,35.374
34.354,35.355
34.327,35.333
34.303,35.311
34.283,35.287
34.267,35.264
34.254,35.241
34.244,35.218
34.236,35.195
34.231,35.173
34.228,35.15
34.228,35.127
34.229,35.104
34.232,35.081
34.235,35.058
34.237,35.036
34.237,35.016
34.234,34.998
34.229,34.984
34.22,34.974
34.207,34.966
34.193,34.96
34.176,34.955
34.157,34.947
34.136,34.937
34.114,34.922
34.091,34.904
34.07,34.883
34.051,34.861
34.034,34.839
34.02,34.818
34.008,34.799
34,34.782
33.994,34.769
33.989,34.758
33.987,34.749
33.985,34.74
33.985,34.732
33.985,34.724
33.985,34.715
33.984,34.707
33.984,34.7
33.982,34.693
33.978,34.686
33.974,34.68
33.967,34.674
33.96,34.668
33.953,34.662
33.947,34.654
33.943,34.645
33.944,34.633
33.951,34.618
33.965,34.601
33.986,34.583
34.017,34.563
34.057,34.543
34.108,34.525
34.167,34.508
34.237,34.495
34.315,34.484
34.401,34.477
34.492,34.473
34.589,34.471
34.687,34.47
34.786,34.469
34.883,34.468
34.976,34.465
35.063,34.463
35.143,34.461
35.215,34.462
35.276,34.467
35.328,34.479
35.369,34.498
35.397,34.525
35.413,34.561
35.417,34.607
35.412,34.661
35.397,34.723
35.375,34.793
35.346,34.868
35.313,34.949
35.276,35.034
35.238,35.123
35.198,35.215
35.16,35.31
35.124,35.405
35.091,35.498
35.062,35.588
35.037,35.672
35.017,35.748
35.002,35.814
34.993,35.869
34.987,35.913
34.986,35.945
34.987,35.967
34.988,35.978
34.99,35.979
34.991,35.973
34.989,35.96
34.985,35.941
34.977,35.918
34.966,35.891
34.952,35.862
34.934,35.831
34.913,35.8
34.89,35.767
34.866,35.734
34.843,35.702
34.822,35.67
34.803,35.639
34.788,35.611
34.777,35.585
34.769,35.563
34.766,35.543
34.767,35.527
34.773,35.515
34.785,35.504
34.8,35.496
34.82,35.488
34.843,35.479
34.867,35.47
34.893,35.459
34.917,35.446
34.941,35.43
34.962,35.411
34.98,35.392
34.994,35.372
35.005,35.352
35.011,35.333
35.013,35.315
35.01,35.299
35.004,35.289
34.993,35.288
34.978,35.295
34.961,35.309
34.943,35.329
34.924,35.352
34.905,35.376
34.888,35.399
34.872,35.42
34.857,35.436
34.844,35.448
34.833,35.454
34.823,35.454
34.814,35.448
34.805,35.435
34.797,35.416
34.789,35.393
34.781,35.367
34.772,35.34
34.763,35.315
34.753,35.293
34.742,35.274
34.731,35.258
34.719,35.246
34.706,35.235
34.692,35.226
34.677,35.217
34.66,35.207
34.642,35.195
34.624,35.183
34.605,35.17
34.587,35.157
34.57,35.145
34.553,35.134
34.538,35.123
34.524,35.113
34.511,35.101
34.5,35.089
34.491,35.075
34.484,35.06
34.479,35.042
34.475,35.022
34.471,34.999
34.467,34.975
34.463,34.95
34.458,34.925
34.451,34.901
34.443,34.878
34.434,34.856
34.422,34.835
34.409,34.816
34.394,34.799
34.378,34.783
34.361,34.768
34.342,34.754
34.323,34.741
34.303,34.727
34.284,34.712
34.267,34.697
34.252,34.683
34.24,34.667
34.231,34.653
34.227,34.639
34.225,34.626
34.226,34.614
34.231,34.603
34.24,34.593
34.254,34.582
34.274,34.572
34.3,34.561
34.333,34.55
34.373,34.539
34.42,34.529
34.473,34.519
34.532,34.511
34.598,34.505
34.668,34.5
34.744,34.497
34.823,34.494
34.905,34.491
34.986,34.487
35.067,34.48
35.146,34.47
35.222,34.458
35.294,34.444
35.362,34.428
35.425,34.414
35.482,34.401
35.532,34.389
35.575,34.38
35.61,34.373
35.639,34.366
35.661,34.36
35.677,34.353
35.686,34.346
35.691,34.337
35.691,34.327
35.686,34.317
35.677,34.308
35.666,34.3
35.652,34.294
35.636,34.293
35.617,34.295
35.597,34.303
35.574,34.316
35.548,34.333
35.521,34.356
35.491,34.386
35.46,34.422
35.429,34.464
35.399,34.514
35.37,34.57
35.343,34.632
35.318,34.698
35.295,34.769
35.275,34.844
35.257,34.922
35.241,35.002
35.228,35.082
35.217,35.161
35.208,35.236
35.202,35.305
35.197,35.368
35.194,35.425
35.192,35.473
35.191,35.515
35.19,35.551
35.19,35.58
35.19,35.604
35.19,35.622
35.19,35.633
35.188,35.638
35.185,35.634
35.18,35.623
35.172,35.605
35.163,35.581
35.153,35.554
35.143,35.524
35.133,35.493
35.124,35.462
35.117,35.432
35.111,35.402
35.108,35.373
35.108,35.346
35.11,35.321
35.114,35.3
35.121,35.281
35.128,35.265
35.135,35.251
35.142,35.238
35.148,35.225
35.153,35.211
35.157,35.195
35.16,35.177
35.16,35.158
35.157,35.139
35.152,35.121
35.143,35.104
35.13,35.088
35.114,35.074
35.093,35.061
35.069,35.049
35.043,35.037
35.013,35.025
34.982,35.011
34.949,34.998
34.916,34.986
34.883,34.976
34.852,34.971
34.824,34.971
34.798,34.976
34.775,34.985
34.755,34.998
34.739,35.013
34.726,35.029
34.717,35.043
34.711,35.056
34.707,35.068
34.704,35.077
34.702,35.086
34.699,35.093
34.695,35.099
34.689,35.105
34.682,35.11
34.673,35.114
34.661,35.116
34.648,35.116
34.633,35.115
34.616,35.112
34.598,35.108
34.58,35.102
34.561,35.095
34.541,35.087
34.521,35.078
34.5,35.067
34.48,35.056
34.461,35.043
34.444,35.029
34.429,35.014
34.416,34.998
34.406,34.982
34.399,34.966
34.394,34.949
34.391,34.932
34.391,34.914
34.392,34.895
34.396,34.874
34.401,34.854
34.406,34.833
34.412,34.812
34.416,34.792
34.42,34.773
34.424,34.755
34.428,34.738
34.434,34.721
34.442,34.705
34.455,34.688
34.475,34.67
34.501,34.652
34.535,34.633
34.578,34.614
34.63,34.597
34.692,34.582
34.764,34.57
34.844,34.56
34.932,34.553
35.025,34.55
35.122,34.548
35.222,34.548
35.321,34.547
35.418,34.545
35.512,34.542
35.601,34.536
35.685,34.529
35.76,34.52
35.826,34.511
35.882,34.502
35.926,34.493
35.959,34.484
35.98,34.474
35.991,34.464
35.99,34.452
35.979,34.439
35.959,34.424
35.93,34.41
35.896,34.395
35.858,34.38
35.816,34.367
35.773,34.355
35.73,34.346
35.688,34.338
35.649,34.333
35.612,34.329
35.579,34.327
35.55,34.324
35.526,34.322
35.508,34.32
35.494,34.317
35.485,34.314
35.479,34.311
35.476,34.309
35.475,34.308
35.475,34.308
35.476,34.311
35.476,34.316
35.476,34.325
35.474,34.339
35.471,34.359
35.465,34.384
35.456,34.415
35.442,34.454
35.424,34.5
35.403,34.553
35.381,34.613
35.359,34.679
35.337,34.749
35.318,34.824
35.3,34.903
35.285,34.984
35.273,35.066
35.264,35.147
35.258,35.226
35.256,35.3
35.258,35.368
35.263,35.43
35.272,35.484
35.283,35.529
35.296,35.566
35.311,35.596
35.327,35.618
35.343,35.633
35.359,35.642
35.373,35.645
35.384,35.642
35.393,35.632
35.399,35.616
35.4,35.594
35.396,35.567
35.386,35.536
35.372,35.502
35.354,35.466
35.333,35.431
35.309,35.395
35.284,35.362
35.258,35.33
35.231,35.301
35.206,35.274
35.181,35.249
35.157,35.225
35.134,35.203
35.115,35.182
35.098,35.163
35.083,35.144
35.069,35.127
35.057,35.112
35.046,35.098
35.035,35.085
35.026,35.075
35.018,35.066
35.01,35.057
35.002,35.049
34.992,35.042
34.981,35.034
34.967,35.026
34.949,35.018
34.928,35.011
34.904,35.005
34.879,35
34.855,34.997
34.831,34.996
34.808,34.997
34.786,35.001
34.768,35.007
34.752,35.015
34.74,35.024
34.731,35.032
34.725,35.04
34.72,35.048
34.716,35.056
34.712,35.064
34.707,35.073
34.7,35.082
34.693,35.092
34.685,35.102
34.677,35.111
34.668,35.119
34.658,35.125
34.646,35.129
34.633,35.131
34.618,35.131
34.601,35.128
34.583,35.124
34.564,35.116
34.544,35.105
34.524,35.091
34.503,35.072
34.481,35.05
34.459,35.026
34.438,35.002
34.418,34.978
34.402,34.955
34.391,34.934
34.384,34.914
34.385,34.897
34.395,34.88
34.413,34.866
34.443,34.853
34.484,34.842
34.536,34.833
34.6,34.827
34.675,34.821
34.76,34.815
34.852,34.809
34.949,34.802
35.049,34.793
35.148,34.782
35.246,34.768
35.34,34.751
35.43,34.733
35.513,34.713
35.591,34.693
35.661,34.674
35.724,34.657
35.777,34.642
35.822,34.63
35.858,34.621
35.885,34.614
35.904,34.608
35.915,34.6
35.919,34.592
35.918,34.582
35.91,34.571
35.898,34.559
35.883,34.546
35.866,34.534
35.847,34.523
35.828,34.514
35.808,34.505
35.789,34.497
35.77,34.488
35.751,34.479
35.732,34.469
35.712,34.459
35.692,34.449
35.672,34.44
35.653,34.431
35.634,34.424
35.613,34.418
35.592,34.413
35.57,34.408
35.547,34.405
35.523,34.401
35.499,34.397
35.474,34.392
35.45,34.386
35.426,34.38
35.403,34.374
35.381,34.367
35.36,34.361
35.34,34.356
35.323,34.352
35.309,34.351
35.298,34.355
35.288,34.364
35.282,34.379
35.278,34.401
35.276,34.428
35.276,34.461
35.278,34.499
35.281,34.541
35.286,34.588
35.291,34.64
35.297,34.698
35.302,34.761
35.305,34.831
35.306,34.907
35.305,34.987
35.301,35.072
35.293,35.157
35.284,35.242
35.272,35.324
35.26,35.401
35.248,35.471
35.237,35.535
35.226,35.59
35.217,35.637
35.21,35.675
35.205,35.704
35.203,35.725
35.203,35.738
35.205,35.744
35.207,35.743
35.21,35.735
35.212,35.722
35.213,35.704
35.212,35.68
35.209,35.651
35.202,35.618
35.193,35.581
35.179,35.542
35.16,35.495
35.137,35.441
35.11,35.383
35.081,35.323
35.049,35.264
35.016,35.21
34.981,35.162
34.946,35.122
34.911,35.09
34.876,35.065
34.843,35.049
34.812,35.039
34.783,35.037
34.756,35.042
34.732,35.052
34.711,35.068
34.693,35.086
34.677,35.106
34.665,35.124
34.657,35.14
34.651,35.151
34.647,35.157
34.645,35.158
34.642,35.156
34.639,35.15
34.633,35.143
34.625,35.136
34.615,35.129
34.602,35.122
34.585,35.117
34.566,35.113
34.545,35.111
34.522,35.11
34.498,35.112
34.474,35.116
34.45,35.122
34.427,35.131
34.406,35.141
34.387,35.152
34.37,35.162
34.356,35.171
34.344,35.178
34.335,35.184
34.328,35.189
34.323,35.193
34.317,35.197
34.312,35.201
34.308,35.204
34.305,35.206
34.305,35.205
34.306,35.201
34.307,35.192
34.309,35.18
34.311,35.164
34.314,35.146
34.319,35.127
34.325,35.109
34.334,35.092
34.347,35.077
34.365,35.064
34.389,35.05
34.419,35.036
34.457,35.021
34.503,35.004
34.558,34.985
34.623,34.965
34.696,34.945
34.778,34.924
34.866,34.903
34.958,34.883
35.053,34.865
35.149,34.848
35.245,34.831
35.339,34.815
35.428,34.798
35.511,34.78
35.586,34.76
35.651,34.739
35.705,34.717
35.748,34.694
35.779,34.672
35.8,34.65
35.81,34.628
35.81,34.609
35.801,34.591
35.783,34.575
35.758,34.561
35.726,34.549
35.689,34.537
35.65,34.527
35.61,34.516
35.569,34.506
35.529,34.495
35.492,34.485
35.456,34.475
35.423,34.466
35.393,34.458
35.366,34.451
35.344,34.446
35.326,34.441
35.313,34.438
35.305,34.436
35.3,34.432
35.297,34.426
35.296,34.417
35.294,34.406
35.292,34.393
35.289,34.378
35.283,34.363
35.274,34.349
35.261,34.337
35.245,34.328
35.224,34.322
35.2,34.321
35.173,34.323
35.144,34.326
35.114,34.33
35.087,34.333
35.061,34.335
35.039,34.338
35.021,34.343
35.008,34.351
35,34.366
34.997,34.388
34.999,34.418
35.006,34.456
35.017,34.503
35.032,34.557
35.049,34.618
35.067,34.685
35.086,34.757
35.104,34.832
35.121,34.91
35.137,34.99
35.151,35.072
35.162,35.155
35.17,35.236
35.174,35.314
35.173,35.387
35.168,35.453
35.157,35.511
35.142,35.561
35.124,35.601
35.102,35.632
35.078,35.653
35.054,35.665
35.029,35.667
35.005,35.661
34.982,35.648
34.961,35.627
34.942,35.601
34.925,35.57
34.91,35.535
34.898,35.498
34.888,35.46
34.88,35.421
34.873,35.383
34.867,35.345
34.861,35.308
34.856,35.273
34.85,35.238
34.843,35.206
34.834,35.174
34.823,35.145
34.81,35.118
34.795,35.094
34.777,35.073
34.757,35.055
34.734,35.038
34.708,35.022
34.68,35.006
34.649,34.991
34.618,34.974
34.588,34.958
34.56,34.941
34.534,34.925
34.511,34.909
34.492,34.894
34.477,34.88
34.465,34.868
34.458,34.857
34.454,34.847
34.455,34.839
34.458,34.831
34.464,34.825
34.471,34.82
34.478,34.817
34.484,34.816
34.489,34.817
34.49,34.82
34.488,34.824
34.482,34.832
34.472,34.84
34.458,34.85
34.44,34.86
34.419,34.87
34.395,34.877
34.369,34.882
34.34,34.884
34.311,34.883
34.283,34.88
34.258,34.875
34.236,34.869
34.22,34.864
34.21,34.86
34.208,34.857
34.215,34.855
34.231,34.853
34.257,34.852
34.294,34.85
34.341,34.847
34.399,34.843
34.466,34.837
34.542,34.83
34.626,34.822
34.715,34.812
34.807,34.801
34.901,34.788
34.994,34.773
35.085,34.755
35.173,34.735
35.255,34.713
35.33,34.688
35.398,34.663
35.458,34.636
35.509,34.609
35.552,34.582
35.587,34.558
35.615,34.535
35.637,34.514
35.653,34.496
35.664,34.48
35.669,34.466
35.67,34.454
35.666,34.444
35.659,34.436
35.649,34.43
35.638,34.425
35.625,34.422
35.613,34.42
35.599,34.417
35.585,34.413
35.57,34.408
35.554,34.402
35.536,34.394
35.519,34.385
35.5,34.376
35.48,34.365
35.46,34.352
35.439,34.338
35.417,34.322
35.394,34.304
35.372,34.284
35.349,34.264
35.328,34.245
35.308,34.228
35.289,34.215
35.271,34.205
35.256,34.199
35.242,34.196
35.231,34.194
35.223,34.192
35.217,34.19
35.213,34.187
35.213,34.183
35.214,34.177
35.217,34.172
35.22,34.167
35.223,34.164
35.226,34.163
35.229,34.165
35.23,34.169
35.231,34.176
35.23,34.187
35.228,34.202
35.223,34.223
35.216,34.252
35.206,34.288
35.194,34.333
35.181,34.387
35.168,34.449
35.155,34.518
35.143,34.593
35.13,34.673
35.119,34.757
35.109,34.844
35.1,34.932
35.092,35.02
35.086,35.107
35.082,35.191
35.081,35.269
35.081,35.341
35.084,35.404
35.088,35.458
35.092,35.501
35.095,35.535
35.096,35.559
35.095,35.575
35.091,35.584
35.084,35.585
35.073,35.581
35.059,35.571
35.041,35.557
35.018,35.538
34.991,35.515
34.961,35.49
34.929,35.461
34.895,35.432
34.862,35.402
34.83,35.373
34.799,35.344
34.771,35.317
34.744,35.291
34.72,35.266
34.698,35.242
34.678,35.217
34.662,35.192
34.648,35.168
34.637,35.144
34.628,35.12
34.622,35.097
34.617,35.076
34.613,35.057
34.609,35.039
34.606,35.024
34.602,35.011
34.598,35
34.592,34.99
34.583,34.982
34.571,34.974
34.555,34.967
34.535,34.96
34.512,34.952
34.487,34.946
34.461,34.94
34.435,34.936
34.41,34.935
34.387,34.939
34.366,34.947
34.348,34.958
34.333,34.972
34.32,34.988
34.312,35.004
34.307,35.019
34.307,35.032
34.309,35.045
34.313,35.057
34.319,35.069
34.327,35.081
34.335,35.094
34.345,35.108
34.355,35.121
34.365,35.132
34.375,35.142
34.385,35.148
34.395,35.15
34.405,35.148
34.415,35.144
34.428,35.137
34.444,35.13
34.464,35.121
34.49,35.112
34.522,35.102
34.563,35.09
34.611,35.078
34.669,35.065
34.735,35.052
34.809,35.039
34.892,35.025
34.981,35.011
35.076,34.997
35.176,34.982
35.279,34.968
35.381,34.953
35.48,34.939
35.574,34.925
35.663,34.91
35.743,34.895
35.813,34.88
35.873,34.865
35.921,34.851
35.958,34.837
35.983,34.824
35.996,34.81
35.999,34.795
35.992,34.779
35.977,34.762
35.955,34.743
35.927,34.723
35.895,34.704
35.86,34.687
35.823,34.672
35.786,34.659
35.75,34.649
35.718,34.642
35.688,34.635
35.663,34.628
35.643,34.619
35.628,34.608
35.619,34.596
35.614,34.582
35.615,34.569
35.619,34.557
35.625,34.548
35.634,34.542
35.643,34.538
35.65,34.536
35.655,34.535
35.657,34.534
35.655,34.531
35.65,34.527
35.64,34.52
35.626,34.513
35.608,34.507
35.587,34.503
35.563,34.504
35.537,34.511
35.51,34.525
35.483,34.547
35.456,34.576
35.431,34.615
35.41,34.661
35.392,34.716
35.378,34.778
35.368,34.847
35.363,34.922
35.363,35.002
35.368,35.087
35.377,35.174
35.389,35.262
35.404,35.35
35.42,35.438
35.437,35.522
35.455,35.603
35.472,35.678
35.487,35.746
35.5,35.805
35.509,35.855
35.515,35.894
35.518,35.923
35.515,35.941
35.509,35.95
35.499,35.949
35.485,35.942
35.469,35.928
35.451,35.911
35.431,35.89
35.409,35.866
35.385,35.839
35.36,35.81
35.33,35.778
35.29,35.745
35.242,35.711
35.185,35.677
35.124,35.643
35.062,35.611
35.004,35.58
34.955,35.549
34.917,35.519
34.892,35.491
34.881,35.464
34.883,35.441
34.897,35.42
34.918,35.403
34.944,35.388
34.972,35.376
34.998,35.365
35.019,35.355
35.032,35.343
35.038,35.33
35.035,35.315
35.024,35.298
35.005,35.281
34.979,35.265
34.947,35.25
34.911,35.237
34.874,35.227
34.836,35.218
34.801,35.209
34.769,35.201
34.741,35.191
34.718,35.181
34.7,35.171
34.687,35.162
34.679,35.155
34.675,35.152
34.675,35.153
34.679,35.158
34.686,35.167
34.693,35.178
34.701,35.19
34.707,35.204
34.711,35.216
34.713,35.229
34.71,35.24
34.702,35.251
34.689,35.261
34.672,35.269
34.651,35.277
34.628,35.284
34.603,35.29
34.577,35.294
34.551,35.296
34.526,35.295
34.503,35.29
34.484,35.283
34.469,35.274
34.46,35.263
34.457,35.251
34.461,35.237
34.473,35.222
34.493,35.207
34.521,35.192
34.557,35.177
34.601,35.162
34.653,35.147
34.713,35.132
34.778,35.116
34.849,35.099
34.924,35.082
35.004,35.063
35.087,35.044
35.172,35.025
35.258,35.007
35.344,34.99
35.428,34.974
35.509,34.96
35.586,34.948
35.658,34.937
35.725,34.926
35.785,34.915
35.84,34.904
35.887,34.892
35.927,34.881
35.96,34.87
35.986,34.859
36.005,34.849
36.018,34.839
36.027,34.829
36.03,34.818
36.03,34.807
36.027,34.794
36.022,34.781
36.015,34.765
36.006,34.749
35.994,34.732
35.981,34.716
35.966,34.699
35.95,34.684
35.934,34.669
35.915,34.656
35.895,34.645
35.874,34.636
35.851,34.631
35.828,34.629
35.804,34.632
35.78,34.639
35.757,34.651
35.735,34.668
35.714,34.69
35.696,34.718
35.679,34.753
35.665,34.796
35.652,34.846
35.642,34.905
35.633,34.973
35.625,35.049
35.617,35.132
35.611,35.222
35.605,35.316
35.599,35.412
35.594,35.507
35.59,35.599
35.586,35.687
35.581,35.769
35.577,35.844
35.571,35.912
35.564,35.972
35.556,36.026
35.546,36.074
35.534,36.117
35.522,36.154
35.509,36.185
35.495,36.209
35.48,36.224
35.465,36.23
35.452,36.226
35.44,36.212
35.432,36.189
35.427,36.158
35.426,36.122
35.427,36.082
35.432,36.04
35.438,35.999
35.445,35.958
35.453,35.92
35.462,35.883
35.471,35.848
35.48,35.814
35.487,35.782
35.492,35.75
35.493,35.721
35.491,35.693
35.485,35.667
35.475,35.644
35.461,35.624
35.443,35.607
35.421,35.592
35.394,35.58
35.364,35.57
35.33,35.561
35.294,35.553
35.256,35.545
35.218,35.537
35.182,35.528
35.147,35.518
35.115,35.507
35.087,35.496
35.062,35.484
35.042,35.472
35.026,35.461
35.013,35.453
35.004,35.446
34.998,35.442
34.994,35.44
34.993,35.441
34.992,35.444
34.991,35.448
34.989,35.452
34.984,35.457
34.977,35.461
34.967,35.464
34.954,35.466
34.94,35.47
34.923,35.475
34.903,35.482
34.88,35.49
34.854,35.498
34.826,35.506
34.799,35.513
34.772,35.517
34.747,35.518
34.724,35.516
34.702,35.51
34.677,35.501
34.647,35.489
34.614,35.474
34.579,35.458
34.544,35.441
34.513,35.423
34.486,35.406
34.466,35.389
34.453,35.372
34.447,35.356
34.447,35.339
34.452,35.321
34.461,35.302
34.473,35.282
34.486,35.26
34.5,35.237
34.511,35.214
34.519,35.191
34.522,35.17
34.52,35.15
34.513,35.133
34.501,35.118
34.485,35.103
34.466,35.089
34.446,35.075
34.426,35.06
34.409,35.044
34.396,35.028
34.389,35.011
34.391,34.996
34.402,34.982
34.425,34.97
34.46,34.961
34.507,34.953
34.567,34.946
34.637,34.938
34.717,34.93
34.805,34.92
34.898,34.909
34.996,34.896
35.096,34.883
35.196,34.869
35.293,34.855
35.385,34.841
35.471,34.827
35.547,34.813
35.614,34.799
35.669,34.787
35.714,34.775
35.748,34.764
35.773,34.756
35.789,34.749
35.797,34.745
35.799,34.743
35.795,34.744
35.786,34.746
35.774,34.75
35.76,34.758
35.744,34.769
35.728,34.785
35.711,34.806
35.696,34.834
35.682,34.869
35.669,34.912
35.659,34.962
35.651,35.018
35.645,35.081
35.64,35.15
35.636,35.225
35.632,35.306
35.628,35.391
35.622,35.478
35.615,35.566
35.606,35.653
35.594,35.736
35.579,35.813
35.561,35.882
35.54,35.943
35.517,35.994
35.491,36.036
35.465,36.07
35.438,36.096
35.413,36.115
35.39,36.128
35.37,36.136
35.352,36.138
35.337,36.134
35.325,36.126
35.316,36.113
35.31,36.096
35.307,36.077
35.305,36.055
35.304,36.031
35.305,36.005
35.305,35.977
35.306,35.948
35.307,35.918
35.307,35.889
35.307,35.86
35.307,35.834
35.306,35.81
35.304,35.791
35.3,35.774
35.294,35.76
35.287,35.747
35.279,35.733
35.269,35.719
35.258,35.703
35.248,35.686
35.238,35.669
35.228,35.653
35.22,35.639
35.212,35.627
35.205,35.618
35.2,35.61
35.195,35.603
35.191,35.596
35.187,35.588
35.184,35.578
35.18,35.567
35.175,35.555
35.168,35.542
35.159,35.53
35.148,35.517
35.135,35.507
35.119,35.498
35.102,35.492
35.084,35.489
35.064,35.488
35.042,35.489
35.018,35.491
34.993,35.494
34.966,35.496
34.94,35.497
34.913,35.498
34.888,35.498
34.862,35.497
34.838,35.497
34.816,35.497
34.795,35.498
34.776,35.5
34.76,35.502
34.748,35.504
34.738,35.505
34.73,35.503
34.724,35.497
34.718,35.485
34.713,35.47
34.708,35.451
34.702,35.43
34.696,35.408
34.689,35.387
34.682,35.368
34.673,35.35
34.663,35.335
34.651,35.32
34.638,35.306
34.623,35.291
34.606,35.276
34.589,35.259
34.57,35.241
34.551,35.222
34.532,35.203
34.513,35.183
34.494,35.163
34.476,35.144
34.459,35.125
34.444,35.106
34.432,35.088
34.421,35.071
34.414,35.055
34.409,35.041
34.405,35.027
34.403,35.013
34.402,35
34.402,34.987
34.401,34.972
34.401,34.957
34.399,34.941
34.396,34.924
34.392,34.907
34.385,34.891
34.375,34.877
34.363,34.864
34.348,34.853
34.332,34.844
34.317,34.836
34.304,34.828
34.296,34.819
34.293,34.81
34.297,34.801
34.31,34.791
34.331,34.78
34.362,34.77
34.404,34.762
34.458,34.756
34.522,34.751
34.596,34.748
34.679,34.744
34.768,34.74
34.864,34.734
34.963,34.728
35.06,34.72
35.153,34.71
35.239,34.7
35.317,34.691
35.387,34.682
35.45,34.677
35.506,34.675
35.556,34.677
35.598,34.685
35.633,34.698
35.661,34.716
35.681,34.74
35.695,34.77
35.701,34.808
35.7,34.852
35.694,34.905
35.683,34.965
35.668,35.034
35.65,35.109
35.63,35.191
35.609,35.276
35.588,35.365
35.568,35.455
35.549,35.543
35.531,35.629
35.515,35.71
35.5,35.786
35.488,35.854
35.476,35.914
35.467,35.967
35.457,36.011
35.448,36.046
35.438,36.074
35.428,36.093
35.417,36.104
35.404,36.107
35.39,36.1
35.374,36.086
35.356,36.065
35.336,36.039
35.314,36.009
35.29,35.977
35.265,35.945
35.239,35.913
35.214,35.883
35.19,35.856
35.168,35.832
35.15,35.81
35.135,35.79
35.125,35.771
35.119,35.754
35.118,35.736
35.12,35.719
35.127,35.703
35.135,35.687
35.146,35.672
35.157,35.656
35.167,35.64
35.177,35.625
35.186,35.61
35.193,35.594
35.2,35.579
35.205,35.563
35.208,35.546
35.208,35.528
35.205,35.508
35.198,35.488
35.188,35.467
35.175,35.446
35.159,35.423
35.141,35.394
35.123,35.36
35.105,35.322
35.087,35.283
35.071,35.245
35.056,35.212
35.043,35.186
35.032,35.169
35.023,35.162
35.016,35.164
35.01,35.175
35.004,35.193
34.998,35.219
34.992,35.249
34.985,35.283
34.977,35.319
34.968,35.355
34.956,35.389
34.943,35.421
34.928,35.447
34.911,35.467
34.891,35.481
34.869,35.487
34.843,35.486
34.814,35.477
34.784,35.463
34.751,35.444
34.719,35.422
34.688,35.399
34.658,35.376
34.63,35.354
34.605,35.334
34.583,35.315
34.564,35.297
34.549,35.278
34.538,35.259
34.53,35.239
34.526,35.217
34.523,35.194
34.523,35.169
34.523,35.144
34.524,35.121
34.525,35.099
34.526,35.081
34.525,35.066
34.523,35.054
34.518,35.043
34.51,35.033
34.498,35.022
34.482,35.01
34.464,34.996
34.443,34.981
34.422,34.963
34.4,34.946
34.378,34.928
34.358,34.91
34.339,34.893
34.322,34.876
34.308,34.861
34.297,34.846
34.288,34.831
34.282,34.817
34.279,34.804
34.278,34.791
34.279,34.777
34.282,34.764
34.287,34.751
34.293,34.739
34.302,34.728
34.311,34.719
34.321,34.71
34.333,34.704
34.345,34.699
34.36,34.694
34.376,34.69
34.393,34.686
34.414,34.68
34.438,34.674
34.467,34.666
34.502,34.656
34.544,34.645
34.594,34.632
34.652,34.619
34.717,34.607
34.789,34.594
34.867,34.583
34.948,34.573
35.032,34.563
35.117,34.554
35.201,34.546
35.282,34.538
35.359,34.532
35.428,34.527
35.492,34.522
35.548,34.52
35.597,34.521
35.639,34.527
35.673,34.538
35.698,34.557
35.714,34.583
35.722,34.619
35.721,34.662
35.713,34.714
35.698,34.77
35.677,34.826
35.652,34.883
35.623,34.94
35.592,34.998
35.559,35.057
35.526,35.118
35.493,35.183
35.461,35.252
35.433,35.323
35.408,35.396
35.386,35.468
35.368,35.537
35.353,35.599
35.341,35.653
35.332,35.699
35.325,35.736
35.32,35.764
35.317,35.784
35.316,35.796
35.315,35.802
35.313,35.802
35.309,35.796
35.303,35.784
35.294,35.768
35.283,35.747
35.269,35.722
35.253,35.694
35.235,35.665
35.215,35.634
35.195,35.603
35.175,35.571
35.155,35.539
35.136,35.509
35.118,35.48
35.101,35.452
35.089,35.426
35.08,35.403
35.075,35.383
35.074,35.367
35.075,35.354
35.08,35.342
35.086,35.331
35.093,35.32
35.102,35.31
35.112,35.299
35.123,35.288
35.135,35.277
35.145,35.267
35.155,35.257
35.161,35.247
35.165,35.237
35.167,35.226
35.167,35.215
35.164,35.203
35.158,35.191
35.154,35.179
35.158,35.167
35.172,35.157
35.193,35.15
35.218,35.144
35.242,35.141
35.261,35.14
35.271,35.14
35.271,35.141
35.26,35.143
35.238,35.145
35.207,35.148
35.167,35.151
35.12,35.154
35.07,35.155
35.017,35.156
34.963,35.156
34.912,35.154
34.864,35.151
34.821,35.147
34.783,35.142
34.75,35.138
34.722,35.134
34.699,35.13
34.68,35.126
34.664,35.122
34.65,35.116
34.637,35.107
34.625,35.096
34.613,35.082
34.6,35.067
34.587,35.052
34.572,35.038
34.557,35.025
34.541,35.013
34.525,35.001
34.51,34.99
34.494,34.976
34.48,34.96
34.466,34.94
34.454,34.917
34.445,34.893
34.437,34.868
34.432,34.844
34.428,34.823
34.426,34.806
34.426,34.792
34.426,34.781
34.427,34.772
34.428,34.765
34.428,34.757
34.427,34.749
34.424,34.739
34.419,34.728
34.409,34.715
34.395,34.7
34.379,34.684
34.361,34.667
34.342,34.649
34.323,34.63
34.305,34.61
34.287,34.591
34.271,34.572
34.255,34.554
34.241,34.538
34.23,34.523
34.221,34.511
34.216,34.501
34.216,34.492
34.222,34.484
34.234,34.477
34.254,34.471
34.282,34.466
34.319,34.463
34.365,34.461
34.417,34.46
34.477,34.459
34.542,34.458
34.612,34.455
34.686,34.451
34.761,34.443
34.836,34.432
34.91,34.418
34.981,34.403
35.049,34.387
35.114,34.371
35.174,34.358
35.23,34.347
35.281,34.34
35.327,34.335
35.368,34.333
35.405,34.332
35.436,34.333
35.462,34.335
35.484,34.337
35.502,34.342
35.516,34.349
35.525,34.362
35.53,34.38
35.532,34.405
35.53,34.44
35.526,34.483
35.52,34.536
35.513,34.596
35.504,34.662
35.494,34.732
35.483,34.806
35.471,34.881
35.457,34.956
35.441,35.03
35.423,35.103
35.402,35.175
35.38,35.243
35.356,35.309
35.332,35.371
35.307,35.429
35.281,35.48
35.256,35.524
35.233,35.56
35.212,35.587
35.193,35.604
35.177,35.614
35.164,35.615
35.154,35.61
35.146,35.6
35.141,35.586
35.138,35.57
35.138,35.552
35.141,35.534
35.145,35.514
35.15,35.495
35.156,35.474
35.161,35.452
35.165,35.429
35.168,35.405
35.169,35.38
35.17,35.355
35.168,35.33
35.164,35.306
35.158,35.282
35.15,35.26
35.142,35.238
35.132,35.218
35.124,35.199
35.116,35.181
35.111,35.165
35.108,35.149
35.107,35.133
35.11,35.118
35.115,35.102
35.122,35.087
35.133,35.072
35.145,35.058
35.158,35.045
35.172,35.033
35.184,35.023
35.196,35.016
35.204,35.01
35.209,35.007
35.21,35.006
35.206,35.006
35.198,35.007
35.186,35.008
35.169,35.008
35.149,35.009
35.125,35.01
35.097,35.011
35.066,35.011
35.034,35.012
35,35.014
34.965,35.016
34.932,35.02
34.902,35.023
34.874,35.025
34.85,35.025
34.829,35.019
34.812,35.008
34.8,34.992
34.791,34.974
34.785,34.955
34.783,34.938
34.782,34.926
34.782,34.918
34.783,34.914
34.783,34.916
34.782,34.921
34.781,34.928
34.777,34.935
34.772,34.94
34.763,34.943
34.751,34.944
34.735,34.941
34.715,34.937
34.691,34.931
34.663,34.924
34.634,34.917
34.603,34.909
34.571,34.899
34.541,34.888
34.512,34.874
34.485,34.857
34.461,34.838
34.441,34.816
34.424,34.793
34.409,34.77
34.396,34.747
34.381,34.726
34.366,34.708
34.35,34.691
34.335,34.675
34.321,34.661
34.31,34.648
34.304,34.635
34.301,34.621
34.303,34.607
34.308,34.593
34.316,34.579
34.326,34.565
34.335,34.552
34.343,34.54
34.35,34.53
34.355,34.521
34.358,34.514
34.36,34.507
34.361,34.502
34.362,34.496
34.365,34.491
34.37,34.485
34.379,34.477
34.395,34.468
34.418,34.459
34.45,34.449
34.491,34.438
34.542,34.428
34.601,34.417
34.667,34.407
34.74,34.398
34.818,34.39
34.901,34.384
34.986,34.379
35.073,34.375
35.158,34.372
35.24,34.368
35.317,34.364
35.387,34.36
35.45,34.356
35.503,34.354
35.548,34.355
35.583,34.359
35.608,34.369
35.624,34.385
35.632,34.407
35.63,34.435
35.621,34.469
35.606,34.51
35.585,34.557
35.561,34.61
35.536,34.669
35.509,34.734
35.483,34.805
35.457,34.883
35.433,34.964
35.41,35.048
35.39,35.133
35.371,35.215
35.356,35.293
35.344,35.364
35.336,35.428
35.33,35.482
35.325,35.525
35.322,35.559
35.318,35.583
35.313,35.598
35.307,35.604
35.298,35.604
35.287,35.599
35.274,35.588
35.258,35.573
35.239,35.555
35.218,35.534
35.195,35.507
35.171,35.476
35.148,35.441
35.125,35.403
35.103,35.365
35.083,35.328
35.066,35.294
35.051,35.266
35.039,35.243
35.032,35.228
35.029,35.218
35.032,35.213
35.04,35.211
35.054,35.211
35.072,35.209
35.092,35.207
35.113,35.202
35.135,35.195
35.155,35.187
35.174,35.178
35.19,35.169
35.203,35.159
35.212,35.148
35.216,35.136
35.215,35.121
35.208,35.106
35.197,35.089
35.181,35.072
35.164,35.056
35.144,35.042
35.124,35.029
35.104,35.018
35.083,35.009
35.064,35
35.046,34.993
35.029,34.987
35.015,34.983
35.003,34.981
34.992,34.982
34.985,34.986
34.98,34.992
34.975,35
34.972,35.008
34.97,35.016
34.968,35.022
34.966,35.027
34.963,35.03
34.959,35.032
34.953,35.034
34.945,35.037
34.933,35.041
34.918,35.046
34.899,35.052
34.876,35.057
34.851,35.06
34.824,35.06
34.797,35.056
34.771,35.048
34.745,35.037
34.72,35.023
34.697,35.008
34.676,34.992
34.658,34.975
34.643,34.958
34.631,34.942
34.622,34.925
34.615,34.908
34.612,34.892
34.612,34.875
34.614,34.859
34.618,34.842
34.623,34.826
34.628,34.809
34.633,34.794
34.636,34.779
34.636,34.765
34.633,34.751
34.626,34.737
34.617,34.724
34.604,34.711
34.589,34.698
34.572,34.685
34.552,34.673
34.529,34.66
34.505,34.648
34.479,34.635
34.453,34.622
34.428,34.61
34.404,34.598
34.383,34.586
34.364,34.574
34.349,34.562
34.338,34.551
34.331,34.539
34.329,34.528
34.333,34.516
34.342,34.503
34.357,34.49
34.379,34.477
34.407,34.465
34.443,34.454
34.485,34.444
34.533,34.436
34.587,34.429
34.646,34.423
34.709,34.417
34.775,34.41
34.845,34.399
34.917,34.385
34.99,34.368
35.065,34.349
35.138,34.329
35.209,34.311
35.277,34.296
35.34,34.287
35.398,34.285
35.45,34.291
35.496,34.305
35.536,34.329
35.568,34.362
35.593,34.403
35.612,34.451
35.623,34.507
35.629,34.568
35.629,34.635
35.625,34.707
35.617,34.783
35.606,34.862
35.592,34.944
35.575,35.027
35.556,35.11
35.534,35.193
35.511,35.272
35.487,35.348
35.461,35.417
35.435,35.478
35.408,35.529
35.381,35.571
35.352,35.602
35.323,35.625
35.295,35.641
35.267,35.65
35.241,35.655
35.218,35.658
35.196,35.657
35.177,35.654
35.161,35.649
35.148,35.641
35.139,35.629
35.132,35.614
35.128,35.596
35.126,35.575
35.126,35.552
35.128,35.528
35.131,35.504
35.134,35.481
35.137,35.461
35.138,35.443
35.138,35.428
35.136,35.414
35.133,35.402
35.129,35.389
35.125,35.375
35.12,35.361
35.115,35.347
35.11,35.332
35.105,35.318
35.1,35.305
35.096,35.294
35.094,35.284
35.093,35.276
35.095,35.269
35.098,35.262
35.104,35.256
35.111,35.25
35.121,35.242
35.131,35.232
35.143,35.221
35.154,35.207
35.165,35.193
35.175,35.178
35.184,35.164
35.191,35.15
35.195,35.139
35.196,35.13
35.193,35.124
35.186,35.12
35.176,35.119
35.161,35.121
35.145,35.124
35.126,35.127
35.106,35.131
35.085,35.135
35.064,35.139
35.041,35.144
35.018,35.149
34.995,35.154
34.972,35.159
34.95,35.165
34.931,35.171
34.913,35.177
34.898,35.181
34.885,35.184
34.874,35.184
34.865,35.182
34.857,35.177
34.852,35.169
34.846,35.159
34.841,35.147
34.836,35.133
34.829,35.119
34.819,35.104
34.808,35.089
34.795,35.074
34.779,35.06
34.762,35.046
34.742,35.031
34.72,35.014
34.697,34.996
34.674,34.975
34.65,34.954
34.626,34.932
34.603,34.911
34.581,34.889
34.56,34.867
34.541,34.845
34.523,34.824
34.507,34.805
34.493,34.787
34.48,34.771
34.47,34.757
34.463,34.744
34.457,34.733
34.453,34.724
34.452,34.717
34.454,34.711
34.458,34.707
34.464,34.705
34.471,34.704
34.478,34.705
34.484,34.706
34.488,34.706
34.491,34.705
34.494,34.702
34.495,34.697
34.496,34.689
34.499,34.68
34.505,34.67
34.514,34.66
34.53,34.65
34.552,34.64
34.582,34.631
34.622,34.623
34.671,34.615
34.729,34.609
34.795,34.603
34.87,34.598
34.95,34.592
35.037,34.587
35.128,34.582
35.221,34.578
35.315,34.574
35.406,34.572
35.495,34.573
35.577,34.577
35.653,34.584
35.719,34.596
35.777,34.613
35.824,34.635
35.86,34.664
35.885,34.699
35.899,34.742
35.901,34.793
35.891,34.851
35.872,34.916
35.845,34.987
35.811,35.064
35.773,35.146
35.732,35.23
35.689,35.316
35.648,35.401
35.609,35.483
35.572,35.561
35.54,35.633
35.512,35.697
35.488,35.752
35.468,35.797
35.454,35.832
35.444,35.857
35.437,35.873
35.433,35.88
35.43,35.88
35.428,35.874
35.426,35.863
35.424,35.848
35.42,35.829
35.414,35.809
35.405,35.786
35.393,35.762
35.378,35.736
35.359,35.71
35.336,35.684
35.311,35.66
35.286,35.638
35.261,35.619
35.236,35.604
35.213,35.591
35.192,35.582
35.173,35.575
35.158,35.567
35.147,35.559
35.141,35.549
35.14,35.537
35.143,35.524
35.151,35.51
35.161,35.495
35.175,35.481
35.19,35.467
35.206,35.452
35.223,35.438
35.24,35.424
35.256,35.409
35.271,35.394
35.283,35.378
35.292,35.362
35.298,35.345
35.299,35.328
35.297,35.31
35.29,35.293
35.28,35.275
35.267,35.259
35.252,35.245
35.234,35.235
35.215,35.229
35.193,35.228
35.171,35.231
35.148,35.238
35.126,35.245
35.106,35.253
35.086,35.26
35.069,35.265
35.054,35.27
35.04,35.274
35.029,35.278
35.018,35.283
35.009,35.288
35.002,35.293
34.997,35.298
34.993,35.303
34.989,35.305
34.984,35.305
34.977,35.303
34.967,35.298
34.956,35.291
34.942,35.281
34.925,35.271
34.905,35.258
34.883,35.243
34.858,35.227
34.83,35.208
34.8,35.188
34.769,35.167
34.736,35.146
34.704,35.127
34.675,35.109
34.648,35.093
34.624,35.078
34.604,35.064
34.587,35.05
34.574,35.036
34.565,35.02
34.56,35.004
34.559,34.988
34.562,34.973
34.568,34.96
34.575,34.95
34.583,34.941
34.591,34.933
34.596,34.924
34.6,34.914
34.601,34.901
34.601,34.887
34.604,34.872
34.611,34.856
34.621,34.841
34.635,34.828
34.648,34.817
34.66,34.808
34.669,34.802
34.673,34.797
34.672,34.793
34.666,34.788
34.655,34.782
34.641,34.775
34.625,34.767
34.609,34.758
34.598,34.749
34.593,34.74
34.596,34.731
34.61,34.723
34.637,34.716
34.677,34.709
34.73,34.704
34.795,34.698
34.87,34.693
34.954,34.687
35.045,34.681
35.141,34.674
35.238,34.666
35.335,34.658
35.429,34.649
35.516,34.641
35.596,34.633
35.666,34.626
35.727,34.623
35.778,34.621
35.819,34.623
35.85,34.629
35.87,34.638
35.882,34.652
35.884,34.67
35.879,34.695
35.867,34.726
35.85,34.765
35.829,34.811
35.806,34.866
35.782,34.93
35.756,35.002
35.73,35.081
35.705,35.164
35.681,35.251
35.659,35.339
35.638,35.428
35.619,35.518
35.6,35.605
35.582,35.688
35.564,35.764
35.547,35.831
35.529,35.89
35.511,35.937
35.492,35.974
35.472,35.998
35.452,36.011
35.43,36.013
35.407,36.004
35.383,35.986
35.359,35.961
35.336,35.931
35.314,35.897
35.294,35.861
35.277,35.823
35.263,35.785
35.255,35.748
35.251,35.713
35.252,35.681
35.256,35.653
35.264,35.628
35.273,35.607
35.284,35.59
35.296,35.575
35.308,35.562
35.319,35.549
35.327,35.536
35.332,35.523
35.335,35.508
35.335,35.494
35.333,35.48
35.33,35.468
35.324,35.457
35.318,35.448
35.311,35.44
35.304,35.432
35.296,35.424
35.287,35.414
35.28,35.402
35.273,35.388
35.268,35.373
35.263,35.356
35.26,35.34
35.258,35.325
35.257,35.312
35.257,35.301
35.258,35.294
35.257,35.288
35.256,35.285
35.254,35.284
35.251,35.283
35.246,35.282
35.24,35.28
35.232,35.278
35.222,35.274
35.21,35.271
35.197,35.268
35.182,35.266
35.164,35.266
35.143,35.269
35.12,35.273
35.094,35.279
35.066,35.285
35.037,35.289
35.007,35.292
34.976,35.291
34.947,35.286
34.92,35.278
34.895,35.267
34.872,35.254
34.853,35.24
34.835,35.227
34.821,35.215
34.81,35.204
34.803,35.195
34.798,35.186
34.796,35.178
34.797,35.169
34.799,35.159
34.803,35.148
34.807,35.136
34.811,35.122
34.812,35.108
34.812,35.093
34.808,35.078
34.801,35.062
34.79,35.046
34.775,35.03
34.756,35.013
34.734,34.997
34.711,34.98
34.687,34.964
34.663,34.947
34.639,34.928
34.616,34.909
34.595,34.89
34.575,34.869
34.558,34.849
34.545,34.829
34.537,34.81
34.532,34.792
34.532,34.777
34.536,34.764
34.542,34.754
34.552,34.745
34.564,34.738
34.58,34.732
34.599,34.726
34.622,34.72
34.648,34.713
34.678,34.707
34.712,34.701
34.751,34.695
34.794,34.691
34.843,34.69
34.896,34.692
34.954,34.696
35.017,34.701
35.084,34.706
35.154,34.709
35.225,34.709
35.298,34.706
35.37,34.7
35.442,34.69
35.511,34.677
35.578,34.661
35.642,34.645
35.702,34.628
35.756,34.612
35.805,34.597
35.848,34.582
35.884,34.569
35.914,34.557
35.937,34.544
35.955,34.532
35.965,34.52
35.969,34.51
35.965,34.505
35.954,34.506
35.936,34.513
35.912,34.53
35.883,34.554
35.85,34.586
35.813,34.626
35.774,34.671
35.733,34.723
35.69,34.782
35.648,34.846
35.607,34.916
35.569,34.99
35.535,35.068
35.504,35.15
35.478,35.232
35.454,35.316
35.434,35.398
35.417,35.477
35.403,35.551
35.393,35.62
35.386,35.682
35.381,35.736
35.38,35.781
35.379,35.817
35.38,35.843
35.381,35.861
35.381,35.87
35.379,35.871
35.376,35.865
35.37,35.854
35.362,35.838
35.351,35.818
35.337,35.795
35.32,35.769
35.302,35.741
35.283,35.711
35.265,35.681
35.249,35.65
35.237,35.621
35.227,35.594
35.222,35.57
35.22,35.548
35.222,35.53
35.227,35.513
35.236,35.497
35.248,35.483
35.263,35.469
35.281,35.455
35.301,35.44
35.322,35.426
35.343,35.412
35.362,35.398
35.38,35.383
35.395,35.367
35.406,35.351
35.414,35.336
35.417,35.321
35.415,35.309
35.409,35.297
35.398,35.288
35.383,35.279
35.363,35.273
35.34,35.266
35.313,35.259
35.285,35.251
35.254,35.242
35.223,35.234
35.191,35.228
35.159,35.223
35.129,35.221
35.101,35.222
35.076,35.225
35.054,35.23
35.035,35.236
35.019,35.242
35.006,35.246
34.996,35.249
34.987,35.25
34.979,35.248
34.973,35.244
34.968,35.238
34.963,35.232
34.958,35.225
34.953,35.218
34.947,35.213
34.939,35.209
34.93,35.205
34.919,35.202
34.906,35.197
34.89,35.192
34.871,35.185
34.851,35.176
34.828,35.166
34.805,35.154
34.78,35.142
34.756,35.13
34.733,35.117
34.712,35.105
34.693,35.093
34.675,35.081
34.661,35.069
34.648,35.057
34.638,35.044
34.631,35.029
34.626,35.012
34.624,34.994
34.624,34.976
34.626,34.957
34.629,34.937
34.632,34.918
34.635,34.9
34.636,34.884
34.636,34.869
34.636,34.854
34.635,34.841
34.635,34.827
34.636,34.811
34.639,34.795
34.646,34.777
34.655,34.76
34.67,34.742
34.691,34.726
34.719,34.711
34.755,34.696
34.801,34.683
34.855,34.672
34.918,34.662
34.989,34.652
35.069,34.644
35.155,34.636
35.246,34.628
35.342,34.621
35.44,34.614
35.537,34.607
35.63,34.6
35.718,34.592
35.797,34.582
35.867,34.572
35.926,34.562
35.973,34.552
36.008,34.542
36.031,34.534
36.041,34.529
36.041,34.525
36.031,34.522
36.012,34.521
35.985,34.52
35.953,34.518
35.916,34.514
35.876,34.509
35.834,34.502
35.791,34.495
35.748,34.487
35.706,34.481
35.668,34.474
35.634,34.469
35.604,34.462
35.579,34.453
35.558,34.443
35.542,34.431
35.53,34.42
35.522,34.411
35.516,34.406
35.512,34.408
35.51,34.418
35.509,34.437
35.508,34.466
35.507,34.505
35.503,34.553
35.498,34.609
35.49,34.671
35.479,34.739
35.465,34.812
35.448,34.889
35.428,34.969
35.406,35.049
35.382,35.129
35.357,35.208
35.332,35.283
35.307,35.354
35.284,35.419
35.264,35.476
35.249,35.524
35.238,35.563
35.233,35.592
35.232,35.613
35.236,35.626
35.245,35.632
35.257,35.632
35.272,35.627
35.291,35.618
35.31,35.606
35.33,35.592
35.35,35.576
35.367,35.56
35.381,35.542
35.392,35.522
35.4,35.5
35.404,35.476
35.404,35.451
35.4,35.425
35.39,35.4
35.375,35.377
35.355,35.356
35.333,35.338
35.308,35.321
35.281,35.306
35.255,35.291
35.229,35.276
35.204,35.261
35.182,35.244
35.161,35.227
35.143,35.21
35.128,35.195
35.114,35.181
35.101,35.168
35.09,35.157
35.079,35.147
35.07,35.139
35.062,35.13
35.054,35.123
35.047,35.116
35.039,35.111
35.03,35.107
35.02,35.103
35.009,35.1
34.996,35.097
34.982,35.093
34.965,35.089
34.945,35.085
34.923,35.081
34.9,35.078
34.874,35.076
34.848,35.075
34.822,35.076
34.796,35.078
34.77,35.08
34.747,35.083
34.725,35.084
34.707,35.084
34.692,35.083
34.68,35.081
34.672,35.079
34.666,35.077
34.661,35.076
34.659,35.077
34.657,35.08
34.656,35.084
34.655,35.089
34.654,35.093
34.652,35.097
34.649,35.099
34.644,35.098
34.637,35.093
34.628,35.085
34.617,35.073
34.604,35.058
34.589,35.041
34.573,35.023
34.557,35.005
34.539,34.986
34.522,34.968
34.505,34.951
34.489,34.933
34.476,34.915
34.463,34.895
34.449,34.874
34.434,34.851
34.421,34.826
34.412,34.801
34.409,34.777
34.418,34.754
34.439,34.734
34.476,34.717
34.529,34.703
34.598,34.691
34.679,34.681
34.773,34.673
34.875,34.665
34.983,34.658
35.094,34.651
35.206,34.645
35.314,34.638
35.418,34.632
35.514,34.626
35.6,34.62
35.677,34.615
35.743,34.61
35.798,34.605
35.843,34.599
35.878,34.593
35.904,34.586
35.922,34.579
35.933,34.571
35.936,34.563
35.933,34.551
35.925,34.53
35.912,34.498
35.897,34.457
35.879,34.409
35.859,34.359
35.84,34.31
35.82,34.269
35.8,34.237
35.779,34.218
35.759,34.21
35.74,34.214
35.72,34.228
35.701,34.249
35.682,34.276
35.662,34.306
35.641,34.339
35.619,34.374
35.595,34.41
35.57,34.445
35.544,34.48
35.517,34.512
35.489,34.543
35.461,34.571
35.434,34.598
35.408,34.624
35.384,34.651
35.362,34.681
35.343,34.714
35.328,34.751
35.314,34.794
35.304,34.843
35.296,34.898
35.289,34.958
35.285,35.023
35.283,35.09
35.282,35.16
35.283,35.228
35.285,35.294
35.288,35.356
35.291,35.413
35.293,35.463
35.295,35.507
35.295,35.543
35.293,35.574
35.288,35.597
35.282,35.615
35.272,35.626
35.26,35.63
35.247,35.629
35.234,35.621
35.221,35.608
35.211,35.589
35.203,35.567
35.199,35.541
35.198,35.515
35.199,35.488
35.203,35.461
35.208,35.435
35.214,35.408
35.222,35.38
35.229,35.352
35.235,35.322
35.24,35.291
35.243,35.259
35.244,35.228
35.241,35.199
35.236,35.171
35.228,35.145
35.218,35.121
35.207,35.1
35.193,35.082
35.177,35.066
35.159,35.05
35.137,35.036
35.112,35.023
35.085,35.011
35.055,35
35.025,34.989
34.994,34.978
34.965,34.967
34.937,34.957
34.91,34.947
34.887,34.939
34.866,34.933
34.849,34.928
34.835,34.927
34.826,34.928
34.819,34.932
34.814,34.938
34.81,34.945
34.807,34.953
34.805,34.961
34.802,34.967
34.799,34.973
34.796,34.977
34.791,34.981
34.785,34.985
34.777,34.989
34.766,34.995
34.752,35.001
34.736,35.007
34.719,35.013
34.699,35.015
34.678,35.014
34.656,35.011
34.633,35.004
34.61,34.996
34.587,34.987
34.566,34.978
34.548,34.969
34.532,34.96
34.519,34.952
34.51,34.944
34.504,34.937
34.501,34.931
34.502,34.925
34.504,34.918
34.51,34.911
34.517,34.902
34.526,34.892
34.536,34.881
34.546,34.868
34.557,34.854
34.569,34.841
34.583,34.827
34.599,34.814
34.62,34.803
34.644,34.793
34.674,34.784
34.71,34.775
34.752,34.764
34.8,34.752
34.853,34.736
34.913,34.718
34.978,34.697
35.048,34.675
35.124,34.653
35.202,34.633
35.283,34.616
35.363,34.604
35.441,34.595
35.516,34.59
35.586,34.588
35.649,34.586
35.706,34.585
35.755,34.581
35.797,34.577
35.83,34.57
35.854,34.563
35.869,34.556
35.874,34.55
35.87,34.543
35.858,34.538
35.839,34.532
35.813,34.528
35.781,34.522
35.743,34.517
35.702,34.51
35.66,34.502
35.618,34.493
35.577,34.483
35.537,34.473
35.501,34.463
35.469,34.453
35.44,34.444
35.416,34.437
35.396,34.43
35.38,34.425
35.367,34.421
35.357,34.42
35.348,34.422
35.34,34.426
35.334,34.433
35.329,34.442
35.325,34.455
35.322,34.472
35.318,34.493
35.314,34.52
35.309,34.553
35.301,34.594
35.292,34.643
35.282,34.699
35.272,34.761
35.261,34.829
35.249,34.899
35.237,34.971
35.225,35.041
35.214,35.111
35.203,35.179
35.192,35.244
35.181,35.306
35.173,35.365
35.166,35.42
35.162,35.47
35.16,35.515
35.16,35.554
35.162,35.587
35.167,35.614
35.173,35.635
35.182,35.65
35.193,35.657
35.206,35.658
35.22,35.652
35.234,35.64
35.247,35.622
35.258,35.601
35.265,35.577
35.269,35.552
35.268,35.526
35.264,35.499
35.256,35.471
35.243,35.443
35.226,35.412
35.206,35.38
35.184,35.345
35.159,35.31
35.135,35.274
35.111,35.239
35.088,35.207
35.066,35.178
35.047,35.154
35.028,35.134
35.011,35.119
34.996,35.108
34.982,35.098
34.969,35.089
34.958,35.081
34.948,35.073
34.938,35.066
34.928,35.058
34.918,35.052
34.907,35.046
34.895,35.042
34.883,35.039
34.869,35.038
34.851,35.037
34.827,35.038
34.795,35.038
34.755,35.038
34.711,35.039
34.664,35.039
34.619,35.039
34.578,35.039
34.542,35.04
34.511,35.043
34.486,35.047
34.467,35.055
34.455,35.067
34.448,35.082
34.447,35.098
34.451,35.116
34.461,35.132
34.474,35.146
34.492,35.156
34.51,35.161
34.529,35.163
34.547,35.162
34.564,35.158
34.578,35.154
34.589,35.148
34.596,35.143
34.599,35.138
34.598,35.133
34.594,35.126
34.585,35.118
34.573,35.107
34.557,35.094
34.538,35.079
34.516,35.063
34.493,35.045
34.469,35.026
34.445,35.007
34.422,34.988
34.402,34.969
34.386,34.95
34.376,34.932
34.373,34.915
34.377,34.898
34.389,34.882
34.411,34.866
34.443,34.851
34.485,34.836
34.536,34.822
34.597,34.806
34.667,34.791
34.745,34.776
34.829,34.762
34.917,34.748
35.007,34.736
35.097,34.725
35.186,34.716
35.272,34.708
35.354,34.7
35.43,34.692
35.498,34.684
35.558,34.674
35.61,34.663
35.652,34.65
35.684,34.637
35.708,34.623
35.723,34.609
35.731,34.597
35.732,34.585
35.726,34.576
35.715,34.569
35.699,34.564
35.679,34.561
35.657,34.559
35.635,34.557
35.614,34.554
35.595,34.55
35.578,34.546
35.563,34.541
35.551,34.536
35.542,34.531
35.535,34.527
35.53,34.524
35.526,34.52
35.52,34.515
35.513,34.507
35.503,34.498
35.488,34.487
35.468,34.475
35.444,34.462
35.415,34.45
35.384,34.441
35.35,34.437
35.316,34.439
35.281,34.451
35.247,34.472
35.216,34.502
35.187,34.541
35.16,34.588
35.138,34.643
35.119,34.704
35.104,34.771
35.094,34.843
35.088,34.92
35.086,35
35.087,35.082
35.09,35.166
35.096,35.251
35.104,35.334
35.112,35.414
35.121,35.49
35.13,35.56
35.139,35.622
35.146,35.676
35.152,35.72
35.157,35.754
35.16,35.778
35.16,35.792
35.159,35.797
35.156,35.796
35.151,35.789
35.144,35.777
35.136,35.761
35.126,35.741
35.117,35.719
35.108,35.694
35.1,35.667
35.092,35.636
35.086,35.604
35.08,35.571
35.076,35.539
35.072,35.508
35.068,35.478
35.066,35.451
35.064,35.427
35.063,35.404
35.062,35.383
35.059,35.364
35.054,35.347
35.046,35.331
35.035,35.316
35.022,35.302
35.005,35.289
34.986,35.276
34.963,35.265
34.937,35.254
34.909,35.243
34.879,35.233
34.848,35.223
34.817,35.214
34.788,35.205
34.761,35.198
34.736,35.19
34.716,35.184
34.699,35.178
34.685,35.172
34.674,35.166
34.666,35.16
34.661,35.156
34.658,35.152
34.656,35.149
34.653,35.147
34.652,35.146
34.652,35.147
34.652,35.15
34.652,35.154
34.652,35.16
34.651,35.167
34.648,35.174
34.643,35.182
34.635,35.19
34.624,35.198
34.61,35.203
34.591,35.208
34.569,35.211
34.546,35.213
34.521,35.215
34.496,35.217
34.47,35.217
34.446,35.216
34.424,35.212
34.404,35.204
34.387,35.193
34.374,35.18
34.365,35.164
34.36,35.146
34.359,35.129
34.361,35.111
34.365,35.094
34.372,35.079
34.382,35.064
34.394,35.051
34.409,35.039
34.425,35.027
34.443,35.015
34.463,35.004
34.484,34.991
34.509,34.977
34.536,34.961
34.568,34.945
34.604,34.928
34.645,34.911
34.691,34.896
34.741,34.884
34.795,34.873
34.853,34.864
34.914,34.856
34.979,34.847
35.045,34.836
35.113,34.823
35.182,34.807
35.249,34.788
35.314,34.769
35.376,34.75
35.433,34.732
35.485,34.717
35.531,34.706
35.571,34.699
35.604,34.695
35.63,34.692
35.65,34.69
35.661,34.686
35.665,34.682
35.662,34.677
35.651,34.671
35.635,34.664
35.614,34.658
35.587,34.652
35.557,34.646
35.522,34.641
35.486,34.636
35.448,34.632
35.411,34.627
35.374,34.622
35.338,34.617
35.304,34.611
35.273,34.606
35.243,34.601
35.216,34.595
35.19,34.589
35.166,34.583
35.143,34.577
35.122,34.571
35.103,34.567
35.086,34.565
35.072,34.564
35.061,34.567
35.051,34.573
35.044,34.582
35.038,34.594
35.034,34.609
35.031,34.629
35.029,34.654
35.027,34.685
35.025,34.725
35.022,34.773
35.017,34.831
35.011,34.898
35.004,34.973
34.997,35.055
34.989,35.14
34.982,35.227
34.974,35.313
34.967,35.396
34.962,35.475
34.958,35.548
34.958,35.615
34.961,35.674
34.968,35.725
34.977,35.767
34.988,35.801
35.001,35.825
35.015,35.841
35.03,35.849
35.044,35.85
35.058,35.846
35.071,35.835
35.082,35.82
35.09,35.798
35.095,35.772
35.096,35.74
35.095,35.705
35.09,35.668
35.083,35.631
35.072,35.594
35.058,35.56
35.041,35.528
35.021,35.499
34.998,35.472
34.973,35.446
34.947,35.42
34.92,35.395
34.893,35.369
34.869,35.345
34.846,35.321
34.825,35.3
34.807,35.281
34.791,35.266
34.778,35.252
34.767,35.24
34.758,35.23
34.752,35.219
34.748,35.209
34.745,35.197
34.744,35.186
34.742,35.174
34.74,35.164
34.738,35.155
34.735,35.148
34.733,35.144
34.729,35.141
34.723,35.142
34.713,35.144
34.7,35.147
34.683,35.152
34.663,35.157
34.639,35.163
34.614,35.169
34.587,35.174
34.56,35.18
34.533,35.187
34.507,35.195
34.483,35.204
34.462,35.215
34.445,35.227
34.431,35.24
34.421,35.252
34.415,35.263
34.411,35.273
34.409,35.279
34.41,35.283
34.412,35.283
34.417,35.281
34.423,35.276
34.431,35.27
34.44,35.261
34.448,35.252
34.455,35.241
34.461,35.229
34.465,35.216
34.467,35.202
34.468,35.188
34.467,35.174
34.468,35.159
34.469,35.143
34.474,35.127
34.483,35.111
34.499,35.094
34.523,35.077
34.556,35.059
34.599,35.042
34.652,35.025
34.716,35.008
34.787,34.992
34.866,34.976
34.95,34.96
35.038,34.943
35.127,34.925
35.217,34.905
35.304,34.883
35.389,34.861
35.468,34.838
35.54,34.815
35.602,34.793
35.654,34.771
35.695,34.752
35.725,34.735
35.744,34.721
35.753,34.71
35.752,34.701
35.742,34.694
35.724,34.688
35.7,34.682
35.67,34.676
35.637,34.669
35.602,34.662
35.568,34.656
35.534,34.65
35.502,34.646
35.471,34.644
35.442,34.644
35.416,34.646
35.392,34.649
35.371,34.651
35.353,34.651
35.337,34.65
35.324,34.648
35.313,34.644
35.303,34.639
35.295,34.634
35.288,34.631
35.282,34.629
35.275,34.629
35.266,34.631
35.255,34.634
35.241,34.638
35.225,34.642
35.205,34.645
35.184,34.647
35.16,34.653
35.136,34.663
35.112,34.68
35.088,34.703
35.066,34.73
35.047,34.762
35.031,34.796
35.018,34.832
35.01,34.871
35.005,34.911
35.006,34.954
35.012,34.999
35.023,35.045
35.04,35.092
35.062,35.141
35.087,35.192
35.115,35.244
35.144,35.297
35.173,35.352
35.201,35.408
35.226,35.466
35.248,35.525
35.264,35.582
35.275,35.638
35.279,35.689
35.277,35.736
35.27,35.777
35.258,35.811
35.241,35.837
35.222,35.856
35.201,35.868
35.179,35.872
35.158,35.869
35.137,35.86
35.119,35.845
35.103,35.825
35.089,35.801
35.077,35.773
35.067,35.743
35.059,35.711
35.052,35.678
35.046,35.644
35.042,35.61
35.038,35.577
35.033,35.545
35.028,35.514
35.021,35.484
35.012,35.456
35.001,35.429
34.988,35.405
34.973,35.383
34.957,35.363
34.938,35.345
34.918,35.328
34.896,35.311
34.873,35.294
34.849,35.275
34.825,35.256
34.802,35.236
34.78,35.215
34.759,35.196
34.739,35.178
34.721,35.162
34.704,35.149
34.689,35.139
34.675,35.132
34.662,35.127
34.651,35.125
34.641,35.125
34.633,35.126
34.626,35.128
34.621,35.13
34.617,35.134
34.614,35.14
34.611,35.147
34.608,35.155
34.603,35.165
34.598,35.174
34.59,35.184
34.58,35.191
34.567,35.197
34.551,35.2
34.533,35.202
34.512,35.202
34.49,35.202
34.467,35.203
34.443,35.204
34.417,35.206
34.385,35.21
34.349,35.214
34.311,35.218
34.277,35.222
34.249,35.223
34.232,35.221
34.229,35.215
34.241,35.206
34.269,35.192
34.315,35.176
34.38,35.157
34.461,35.138
34.559,35.118
34.669,35.099
34.787,35.081
34.909,35.066
35.032,35.052
35.152,35.04
35.265,35.028
35.37,35.015
35.464,35.002
35.545,34.988
35.614,34.973
35.669,34.957
35.709,34.942
35.737,34.928
35.752,34.914
35.757,34.902
35.753,34.89
35.741,34.879
35.722,34.867
35.7,34.853
35.674,34.837
35.647,34.819
35.618,34.8
35.59,34.781
35.563,34.762
35.539,34.743
35.518,34.725
35.5,34.706
35.485,34.687
35.472,34.67
35.46,34.655
35.449,34.641
35.438,34.63
35.427,34.621
35.416,34.614
35.404,34.61
35.39,34.606
35.375,34.603
35.357,34.601
35.337,34.598
35.315,34.594
35.291,34.59
35.266,34.587
35.241,34.585
35.217,34.584
35.193,34.585
35.17,34.587
35.148,34.588
35.127,34.588
35.108,34.587
35.093,34.586
35.081,34.586
35.074,34.588
35.071,34.594
35.072,34.604
35.078,34.622
35.088,34.647
35.101,34.681
35.118,34.724
35.136,34.776
35.155,34.835
35.173,34.902
35.189,34.975
35.203,35.053
35.214,35.134
35.221,35.217
35.225,35.299
35.225,35.379
35.222,35.455
35.216,35.527
35.206,35.594
35.194,35.657
35.18,35.715
35.166,35.767
35.153,35.814
35.141,35.853
35.131,35.883
35.122,35.903
35.116,35.913
35.112,35.914
35.11,35.907
35.111,35.894
35.113,35.877
35.116,35.857
35.119,35.835
35.121,35.812
35.121,35.788
35.119,35.762
35.114,35.735
35.106,35.706
35.094,35.676
35.079,35.647
35.062,35.617
35.042,35.589
35.021,35.562
34.998,35.536
34.974,35.513
34.948,35.492
34.921,35.473
34.893,35.456
34.866,35.441
34.842,35.428
34.819,35.416
34.8,35.405
34.783,35.396
34.768,35.387
34.756,35.377
34.746,35.367
34.739,35.356
34.734,35.344
34.732,35.334
34.73,35.324
34.728,35.316
34.726,35.309
34.722,35.303
34.718,35.297
34.712,35.292
34.704,35.286
34.695,35.28
34.685,35.274
34.672,35.27
34.657,35.267
34.639,35.266
34.619,35.267
34.597,35.271
34.575,35.277
34.553,35.284
34.532,35.293
34.512,35.302
34.493,35.312
34.477,35.322
34.463,35.332
34.452,35.34
34.445,35.348
34.441,35.355
34.442,35.361
34.447,35.365
34.457,35.368
34.47,35.37
34.487,35.372
34.507,35.373
34.532,35.374
34.56,35.375
34.593,35.373
34.63,35.37
34.673,35.364
34.72,35.354
34.772,35.34
34.828,35.323
34.888,35.303
34.953,35.28
35.021,35.255
35.092,35.231
35.165,35.207
35.238,35.184
35.311,35.163
35.38,35.144
35.445,35.126
35.505,35.11
35.559,35.094
35.607,35.078
35.65,35.062
35.687,35.045
35.719,35.027
35.744,35.01
35.765,34.993
35.779,34.976
35.789,34.961
35.794,34.947
35.794,34.933
35.79,34.92
35.781,34.906
35.768,34.892
35.75,34.878
35.728,34.863
35.703,34.847
35.674,34.83
35.642,34.813
35.607,34.796
35.57,34.78
35.53,34.766
35.49,34.754
35.451,34.744
35.413,34.736
35.377,34.73
35.345,34.725
35.316,34.72
35.291,34.714
35.27,34.708
35.251,34.7
35.236,34.692
35.223,34.685
35.213,34.678
35.205,34.672
35.198,34.668
35.194,34.666
35.191,34.664
35.189,34.665
35.188,34.669
35.189,34.677
35.19,34.69
35.191,34.71
35.192,34.739
35.193,34.776
35.193,34.822
35.192,34.878
35.189,34.943
35.183,35.016
35.177,35.095
35.17,35.179
35.164,35.266
35.159,35.353
35.154,35.439
35.152,35.523
35.15,35.602
35.151,35.676
35.153,35.741
35.157,35.798
35.163,35.846
35.17,35.886
35.178,35.919
35.187,35.944
35.195,35.962
35.204,35.973
35.213,35.977
35.22,35.974
35.226,35.964
35.23,35.949
35.231,35.93
35.228,35.909
35.223,35.885
35.214,35.862
35.202,35.838
35.187,35.816
35.169,35.794
35.148,35.774
35.124,35.755
35.098,35.737
35.07,35.719
35.042,35.7
35.014,35.681
34.987,35.661
34.962,35.64
34.939,35.619
34.918,35.599
34.9,35.581
34.884,35.565
34.871,35.551
34.861,35.54
34.854,35.53
34.847,35.523
34.842,35.516
34.838,35.509
34.833,35.502
34.828,35.494
34.823,35.486
34.817,35.477
34.811,35.466
34.804,35.455
34.796,35.444
34.785,35.433
34.771,35.424
34.754,35.416
34.734,35.411
34.711,35.409
34.685,35.41
34.656,35.412
34.621,35.417
34.581,35.423
34.538,35.429
34.493,35.435
34.451,35.441
34.412,35.446
34.38,35.451
34.356,35.455
34.339,35.461
34.33,35.467
34.329,35.475
34.335,35.484
34.346,35.493
34.361,35.502
34.381,35.51
34.403,35.516
34.427,35.52
34.451,35.522
34.473,35.52
34.494,35.516
34.514,35.509
34.532,35.501
34.55,35.491
34.568,35.479
34.588,35.466
34.612,35.451
34.641,35.436
34.674,35.419
34.712,35.4
34.756,35.38
34.806,35.358
34.864,35.335
34.929,35.312
35,35.288
35.077,35.266
35.158,35.245
35.241,35.227
35.324,35.212
35.406,35.2
35.485,35.191
35.56,35.183
35.63,35.175
35.693,35.167
35.748,35.158
35.794,35.147
35.83,35.135
35.857,35.122
35.874,35.109
35.882,35.096
35.881,35.083
35.871,35.07
35.852,35.058
35.825,35.044
35.791,35.03
35.751,35.016
35.708,35
35.664,34.984
35.619,34.966
35.576,34.948
35.536,34.93
35.501,34.913
35.469,34.897
35.442,34.881
35.42,34.868
35.403,34.856
35.39,34.845
35.382,34.836
35.377,34.828
35.375,34.82
35.375,34.812
35.376,34.803
35.377,34.794
35.377,34.786
35.375,34.779
35.37,34.775
35.363,34.775
35.352,34.78
35.337,34.792
35.319,34.811
35.296,34.837
35.271,34.869
35.246,34.907
35.221,34.951
35.197,34.999
35.176,35.053
35.156,35.113
35.14,35.179
35.127,35.253
35.119,35.332
35.114,35.417
35.114,35.506
35.119,35.596
35.127,35.686
35.138,35.773
35.151,35.855
35.166,35.932
35.182,36
35.198,36.06
35.215,36.11
35.233,36.15
35.249,36.179
35.264,36.197
35.276,36.206
35.285,36.208
35.292,36.202
35.296,36.192
35.297,36.179
35.296,36.161
35.291,36.141
35.283,36.116
35.272,36.088
35.258,36.058
35.241,36.025
35.221,35.993
35.2,35.961
35.179,35.93
35.158,35.9
35.137,35.873
35.117,35.848
35.098,35.825
35.081,35.804
35.066,35.786
35.053,35.769
35.041,35.755
35.03,35.743
35.02,35.733
35.011,35.723
35.001,35.714
34.991,35.703
34.981,35.69
34.971,35.677
34.961,35.664
34.95,35.65
34.938,35.637
34.926,35.625
34.913,35.615
34.897,35.605
34.881,35.595
34.863,35.585
34.844,35.576
34.824,35.567
34.802,35.559
34.781,35.552
34.759,35.548
34.737,35.547
34.716,35.547
34.696,35.548
34.677,35.55
34.66,35.552
34.645,35.556
34.633,35.561
34.622,35.569
34.613,35.579
34.606,35.589
34.6,35.599
34.595,35.608
34.592,35.616
34.589,35.623
34.585,35.628
34.58,35.632
34.572,35.635
34.562,35.638
34.549,35.64
34.535,35.64
34.519,35.639
34.504,35.635
34.49,35.626
34.475,35.614
34.462,35.598
34.451,35.581
34.444,35.562
34.443,35.543
34.45,35.525
34.466,35.508
34.491,35.492
34.527,35.479
34.572,35.467
34.628,35.455
34.693,35.444
34.766,35.432
34.847,35.419
34.932,35.404
35.02,35.388
35.109,35.369
35.196,35.35
35.279,35.33
35.358,35.311
35.43,35.294
35.495,35.277
35.551,35.262
35.598,35.248
35.636,35.233
35.665,35.216
35.684,35.198
35.695,35.176
35.696,35.153
35.689,35.127
35.676,35.101
35.658,35.075
35.636,35.05
35.612,35.029
35.586,35.011
35.559,34.996
35.533,34.986
35.507,34.978
35.483,34.971
35.461,34.965
35.441,34.958
35.423,34.95
35.407,34.941
35.393,34.932
35.381,34.921
35.37,34.911
35.361,34.902
35.353,34.895
35.344,34.888
35.334,34.882
35.322,34.877
35.307,34.871
35.289,34.865
35.268,34.857
35.244,34.85
35.218,34.843
35.19,34.837
35.161,34.834
35.132,34.835
35.104,34.84
35.078,34.853
35.055,34.873
35.036,34.902
35.02,34.939
35.008,34.985
35,35.039
34.996,35.101
34.995,35.171
34.998,35.246
35.005,35.327
35.015,35.412
35.028,35.5
35.044,35.589
35.062,35.677
35.08,35.764
35.097,35.847
35.112,35.925
35.127,35.996
35.14,36.06
35.151,36.115
35.16,36.162
35.165,36.2
35.168,36.229
35.167,36.25
35.163,36.263
35.158,36.269
35.151,36.268
35.142,36.263
35.133,36.252
35.123,36.238
35.113,36.221
35.103,36.2
35.093,36.178
35.083,36.153
35.074,36.128
35.066,36.102
35.059,36.077
35.053,36.052
35.047,36.029
35.042,36.007
35.036,35.988
35.028,35.971
35.019,35.958
35.007,35.946
34.993,35.936
34.978,35.926
34.959,35.917
34.939,35.906
34.917,35.894
34.893,35.88
34.868,35.863
34.842,35.842
34.816,35.819
34.79,35.794
34.766,35.767
34.742,35.741
34.72,35.716
34.699,35.692
34.68,35.671
34.664,35.652
34.649,35.636
34.637,35.62
34.627,35.606
34.619,35.593
34.613,35.58
34.608,35.568
34.606,35.557
34.604,35.548
34.604,35.542
34.605,35.538
34.605,35.537
34.604,35.539
34.601,35.544
34.595,35.551
34.587,35.56
34.577,35.57
34.564,35.581
34.548,35.591
34.53,35.6
34.509,35.605
34.488,35.609
34.465,35.609
34.443,35.607
34.423,35.601
34.405,35.595
34.391,35.587
34.379,35.579
34.371,35.571
34.368,35.563
34.369,35.554
34.375,35.544
34.387,35.532
34.405,35.52
34.43,35.505
34.461,35.489
34.499,35.473
34.544,35.456
34.596,35.439
34.655,35.424
34.718,35.409
34.786,35.395
34.858,35.382
34.933,35.369
35.009,35.355
35.085,35.341
35.161,35.326
35.235,35.311
35.304,35.295
35.369,35.279
35.43,35.262
35.485,35.246
35.536,35.231
35.582,35.217
35.621,35.205
35.655,35.193
35.683,35.182
35.706,35.169
35.725,35.154
35.739,35.137
35.748,35.118
35.753,35.098
35.753,35.078
35.748,35.06
35.739,35.044
35.726,35.032
35.71,35.022
35.691,35.015
35.669,35.009
35.645,35.004
35.619,34.998
35.59,34.99
35.56,34.981
35.53,34.97
35.498,34.958
35.467,34.945
35.434,34.931
35.402,34.916
35.369,34.901
35.335,34.886
35.303,34.874
35.272,34.863
35.243,34.853
35.216,34.843
35.194,34.834
35.174,34.825
35.159,34.815
35.146,34.805
35.137,34.794
35.131,34.785
35.128,34.777
35.127,34.772
35.128,34.772
35.131,34.776
35.136,34.787
35.141,34.804
35.147,34.829
35.154,34.86
35.16,34.899
35.167,34.945
35.173,34.999
35.179,35.06
35.184,35.129
35.186,35.206
35.186,35.289
35.185,35.378
35.183,35.471
35.182,35.567
35.182,35.662
35.183,35.757
35.187,35.848
35.193,35.936
35.2,36.019
35.208,36.095
35.217,36.162
35.226,36.22
35.234,36.267
35.241,36.304
35.248,36.33
35.254,36.346
35.257,36.355
35.26,36.355
35.26,36.348
35.259,36.335
35.256,36.315
35.251,36.291
35.243,36.261
35.233,36.227
35.22,36.191
35.204,36.155
35.185,36.12
35.164,36.087
35.141,36.056
35.115,36.027
35.088,36
35.06,35.976
35.032,35.953
35.004,35.932
34.978,35.913
34.954,35.895
34.932,35.878
34.913,35.862
34.897,35.846
34.884,35.828
34.875,35.809
34.868,35.789
34.865,35.767
34.865,35.746
34.867,35.725
34.87,35.705
34.872,35.686
34.874,35.667
34.874,35.649
34.872,35.63
34.867,35.611
34.859,35.591
34.849,35.572
34.836,35.555
34.82,35.54
34.802,35.528
34.781,35.52
34.76,35.515
34.738,35.514
34.717,35.516
34.697,35.521
34.679,35.529
34.665,35.538
34.653,35.55
34.643,35.562
34.636,35.574
34.631,35.586
34.629,35.596
34.631,35.603
34.638,35.609
34.65,35.612
34.667,35.613
34.69,35.614
34.718,35.614
34.752,35.615
34.793,35.616
34.839,35.617
34.891,35.617
34.95,35.615
35.014,35.612
35.081,35.606
35.151,35.597
35.222,35.584
35.294,35.568
35.365,35.551
35.436,35.532
35.506,35.512
35.574,35.492
35.639,35.474
35.7,35.458
35.756,35.444
35.807,35.431
35.852,35.42
35.892,35.409
35.923,35.397
35.944,35.383
35.955,35.368
35.956,35.352
35.95,35.333
35.939,35.314
35.925,35.295
35.909,35.276
35.893,35.258
35.877,35.242
35.859,35.226
35.84,35.212
35.82,35.197
35.8,35.183
35.779,35.168
35.757,35.152
35.734,35.136
35.712,35.122
35.689,35.109
35.666,35.099
35.644,35.091
35.622,35.085
35.601,35.08
35.58,35.076
35.561,35.071
35.543,35.065
35.527,35.057
35.512,35.046
35.499,35.034
35.488,35.02
35.478,35.006
35.47,34.992
35.465,34.98
35.463,34.969
35.463,34.962
35.464,34.956
35.468,34.952
35.471,34.949
35.476,34.945
35.48,34.941
35.485,34.935
35.489,34.926
35.492,34.916
35.495,34.904
35.496,34.892
35.497,34.88
35.497,34.87
35.496,34.864
35.494,34.862
35.492,34.864
35.489,34.871
35.486,34.883
35.482,34.9
35.478,34.922
35.475,34.949
35.472,34.983
35.471,35.023
35.471,35.07
35.472,35.125
35.474,35.188
35.477,35.26
35.48,35.338
35.483,35.422
35.485,35.511
35.487,35.603
35.487,35.694
35.485,35.785
35.479,35.871
35.472,35.951
35.462,36.025
35.45,36.09
35.438,36.147
35.424,36.196
35.41,36.236
35.393,36.267
35.376,36.291
35.357,36.307
35.338,36.315
35.318,36.316
35.297,36.308
35.278,36.294
35.259,36.273
35.241,36.248
35.225,36.22
35.21,36.189
35.197,36.158
35.185,36.128
35.175,36.099
35.165,36.073
35.156,36.049
35.148,36.027
35.14,36.005
35.132,35.983
35.124,35.962
35.115,35.939
35.105,35.917
35.095,35.896
35.085,35.875
35.075,35.854
35.063,35.835
35.05,35.816
35.033,35.799
35.012,35.782
34.989,35.766
34.963,35.751
34.936,35.736
34.908,35.722
34.881,35.708
34.856,35.696
34.833,35.685
34.813,35.675
34.796,35.666
34.784,35.658
34.777,35.652
34.774,35.648
34.777,35.644
34.784,35.642
34.796,35.641
34.814,35.64
34.837,35.638
34.868,35.636
34.904,35.633
34.948,35.628
34.997,35.622
35.052,35.615
35.113,35.608
35.18,35.602
35.251,35.597
35.326,35.593
35.403,35.591
35.481,35.592
35.559,35.595
35.636,35.599
35.711,35.605
35.784,35.611
35.853,35.617
35.918,35.622
35.978,35.626
36.034,35.629
36.083,35.629
36.127,35.627
36.165,35.622
36.197,35.615
36.223,35.604
36.245,35.592
36.261,35.577
36.272,35.56
36.278,35.542
36.279,35.522
36.276,35.502
36.267,35.481
36.254,35.46
36.237,35.44
36.217,35.42
36.194,35.399
36.169,35.378
36.143,35.358
36.116,35.338
36.086,35.319
36.056,35.299
36.026,35.28
35.996,35.262
35.966,35.244
35.938,35.226
35.911,35.209
35.885,35.191
35.862,35.173
35.841,35.154
35.823,35.135
35.807,35.117
35.792,35.098
35.778,35.081
35.765,35.064
35.753,35.05
35.741,35.037
35.731,35.026
35.722,35.017
35.715,35.007
35.71,34.998
35.707,34.987
35.704,34.976
35.701,34.963
35.697,34.95
35.694,34.937
35.69,34.924
35.685,34.914
35.678,34.904
35.669,34.895
35.658,34.887
35.644,34.88
35.63,34.872
35.617,34.863
35.604,34.853
35.592,34.842
35.583,34.83
35.576,34.818
35.572,34.807
35.57,34.797
35.571,34.788
35.574,34.782
35.579,34.779
35.587,34.777
35.596,34.776
35.605,34.776
35.614,34.775
35.621,34.772
35.626,34.768
35.63,34.762
35.631,34.754
35.63,34.747
35.626,34.743
35.62,34.743
35.61,34.751
35.598,34.769
35.581,34.797
35.56,34.836
35.536,34.884
35.51,34.94
35.482,35.003
35.453,35.072
35.422,35.145
35.39,35.222
35.358,35.303
35.326,35.387
35.294,35.473
35.264,35.56
35.237,35.646
35.213,35.731
35.193,35.813
35.177,35.889
35.166,35.959
35.158,36.02
35.153,36.073
35.15,36.115
35.149,36.146
35.15,36.166
35.15,36.175
35.149,36.176
35.146,36.17
35.139,36.157
35.13,36.14
35.119,36.12
35.104,36.097
35.087,36.072
35.067,36.045
35.044,36.016
35.02,35.983
34.995,35.948
34.97,35.912
34.946,35.876
34.923,35.842
34.902,35.811
34.884,35.783
34.868,35.758
34.854,35.736
34.842,35.716
34.833,35.698
34.827,35.68
34.825,35.664
34.826,35.649
34.83,35.635
34.837,35.621
34.848,35.608
34.863,35.594
34.882,35.581
34.904,35.568
34.927,35.555
34.947,35.542
34.964,35.531
34.981,35.521
34.999,35.511
35.021,35.504
35.051,35.497
35.091,35.489
35.143,35.481
35.206,35.473
35.281,35.465
35.365,35.459
35.455,35.455
35.551,35.454
35.649,35.455
35.748,35.459
35.844,35.464
35.937,35.47
36.024,35.476
36.103,35.482
36.175,35.487
36.237,35.491
36.289,35.495
36.33,35.5
36.362,35.503
36.384,35.506
36.397,35.508
36.402,35.509
36.399,35.508
36.389,35.505
36.373,35.502
36.353,35.497
36.329,35.491
36.303,35.484
36.273,35.476
36.241,35.464
36.207,35.45
36.172,35.433
36.137,35.412
36.104,35.39
36.072,35.366
36.042,35.342
36.016,35.32
35.992,35.3
35.971,35.282
35.953,35.266
35.937,35.251
35.924,35.236
35.914,35.221
35.907,35.204
35.902,35.186
35.899,35.166
35.896,35.144
35.894,35.12
35.891,35.095
35.889,35.07
35.885,35.046
35.88,35.022
35.875,35.001
35.868,34.982
35.861,34.965
35.853,34.95
35.845,34.937
35.836,34.925
35.827,34.913
35.817,34.901
35.808,34.889
35.799,34.876
35.791,34.863
35.782,34.852
35.775,34.842
35.769,34.836
35.764,34.831
35.762,34.829
35.763,34.829
35.764,34.828
35.767,34.827
35.77,34.823
35.773,34.816
35.777,34.806
35.782,34.794
35.787,34.781
35.794,34.768
35.802,34.756
35.81,34.746
35.818,34.738
35.825,34.732
35.829,34.728
35.832,34.725
35.831,34.721
35.827,34.717
35.819,34.712
35.806,34.705
35.788,34.696
35.765,34.687
35.739,34.677
35.711,34.668
35.681,34.66
35.649,34.654
35.617,34.651
35.584,34.651
35.552,34.654
35.522,34.66
35.493,34.669
35.467,34.682
35.445,34.699
35.426,34.719
35.41,34.745
35.398,34.778
35.389,34.818
35.381,34.865
35.373,34.921
35.366,34.985
35.359,35.056
35.351,35.134
35.341,35.216
35.33,35.3
35.316,35.385
35.301,35.468
35.283,35.548
35.261,35.624
35.237,35.695
35.211,35.759
35.183,35.817
35.155,35.868
35.125,35.912
35.095,35.948
35.065,35.975
35.035,35.993
35.007,36.001
34.98,35.999
34.958,35.989
34.938,35.971
34.923,35.947
34.911,35.919
34.903,35.888
34.899,35.857
34.897,35.826
34.896,35.796
34.896,35.769
34.896,35.745
34.895,35.722
34.891,35.7
34.885,35.679
34.876,35.656
34.864,35.632
34.85,35.607
34.834,35.581
34.817,35.555
34.801,35.53
34.786,35.506
34.773,35.484
34.763,35.466
34.758,35.449
34.757,35.434
34.763,35.421
34.778,35.407
34.802,35.392
34.837,35.375
34.884,35.358
34.943,35.338
35.013,35.318
35.095,35.298
35.186,35.278
35.285,35.259
35.39,35.241
35.499,35.224
35.61,35.211
35.72,35.2
35.827,35.194
35.928,35.191
36.021,35.192
36.104,35.194
36.175,35.197
36.235,35.201
36.282,35.205
36.317,35.208
36.34,35.21
36.351,35.213
36.351,35.215
36.341,35.217
36.323,35.219
36.299,35.221
36.27,35.223
36.238,35.224
36.204,35.224
36.17,35.224
36.137,35.221
36.107,35.217
36.079,35.212
36.055,35.205
36.034,35.196
36.017,35.186
36.002,35.175
35.991,35.162
35.983,35.149
35.979,35.135
35.978,35.119
35.98,35.102
35.982,35.083
35.985,35.063
35.986,35.042
35.984,35.019
35.98,34.997
35.972,34.973
35.96,34.95
35.943,34.929
35.924,34.909
35.901,34.891
35.875,34.875
35.847,34.861
35.818,34.85
35.787,34.839
35.756,34.829
35.727,34.818
35.699,34.808
35.675,34.796
35.655,34.783
35.639,34.768
35.628,34.751
35.621,34.733
35.619,34.714
35.623,34.696
35.631,34.679
35.643,34.663
35.659,34.648
35.678,34.635
35.697,34.623
35.713,34.612
35.725,34.6
35.732,34.589
35.733,34.578
35.728,34.567
35.718,34.558
35.706,34.552
35.692,34.548
35.678,34.546
35.665,34.546
35.654,34.546
35.645,34.544
35.639,34.54
35.634,34.533
35.631,34.524
35.629,34.512
35.628,34.499
35.627,34.486
35.627,34.472
35.627,34.46
35.626,34.449
35.624,34.44
35.621,34.432
35.616,34.424
35.611,34.418
35.604,34.411
35.596,34.405
35.586,34.398
35.573,34.392
35.557,34.387
35.538,34.384
35.515,34.385
35.49,34.391
35.461,34.404
35.431,34.426
35.399,34.457
35.366,34.497
35.332,34.547
35.299,34.604
35.267,34.667
35.235,34.735
35.206,34.807
35.179,34.881
35.155,34.957
35.134,35.03
35.117,35.096
35.104,35.155
35.095,35.207
35.089,35.253
35.085,35.293
35.083,35.33
35.083,35.364
35.085,35.396
35.087,35.426
35.09,35.455
35.092,35.483
35.093,35.509
35.091,35.534
35.088,35.556
35.082,35.575
35.074,35.591
35.065,35.604
35.054,35.612
35.042,35.616
35.028,35.617
35.012,35.614
34.993,35.605
34.974,35.591
34.953,35.569
34.934,35.542
34.916,35.509
34.899,35.474
34.884,35.437
34.871,35.4
34.86,35.366
34.851,35.334
34.845,35.305
34.841,35.278
34.84,35.254
34.841,35.231
34.844,35.209
34.849,35.189
34.854,35.172
34.86,35.156
34.865,35.142
34.869,35.129
34.874,35.117
34.878,35.106
34.882,35.094
34.887,35.083
34.894,35.071
34.903,35.061
34.916,35.051
34.934,35.042
34.958,35.035
34.989,35.028
35.029,35.022
35.078,35.017
35.138,35.013
35.207,35.011
35.285,35.01
35.37,35.011
35.462,35.015
35.558,35.022
35.658,35.031
35.758,35.041
35.856,35.051
35.951,35.062
36.04,35.071
36.121,35.079
36.195,35.085
36.258,35.091
36.311,35.096
36.354,35.099
36.385,35.102
36.405,35.102
36.415,35.1
36.415,35.095
36.406,35.088
36.388,35.078
36.363,35.066
36.332,35.053
36.296,35.039
36.256,35.025
36.215,35.011
36.174,34.997
36.135,34.982
36.1,34.968
36.068,34.954
36.041,34.941
36.019,34.928
36.001,34.917
35.987,34.908
35.977,34.899
35.971,34.891
35.969,34.882
35.969,34.872
35.971,34.859
35.975,34.843
35.979,34.825
35.983,34.807
35.986,34.788
35.986,34.772
35.985,34.758
35.98,34.747
35.972,34.739
35.961,34.734
35.946,34.731
35.927,34.728
35.905,34.726
35.881,34.722
35.854,34.717
35.826,34.711
35.798,34.703
35.771,34.694
35.744,34.681
35.72,34.667
35.698,34.651
35.68,34.636
35.666,34.621
35.658,34.609
35.655,34.597
35.658,34.587
35.666,34.577
35.677,34.566
35.693,34.555
35.711,34.544
35.731,34.533
35.752,34.522
35.772,34.513
35.79,34.506
35.805,34.502
35.815,34.501
35.819,34.502
35.819,34.505
35.813,34.509
35.802,34.511
35.785,34.51
35.764,34.507
35.738,34.501
35.709,34.494
35.676,34.489
35.643,34.487
35.609,34.491
35.577,34.503
35.548,34.523
35.521,34.552
35.497,34.591
35.477,34.637
35.459,34.691
35.444,34.751
35.433,34.816
35.424,34.885
35.417,34.958
35.411,35.032
35.406,35.107
35.399,35.183
35.391,35.259
35.382,35.333
35.371,35.404
35.359,35.472
35.344,35.533
35.327,35.588
35.306,35.634
35.283,35.672
35.258,35.701
35.231,35.721
35.203,35.733
35.175,35.737
35.146,35.735
35.119,35.727
35.092,35.715
35.068,35.699
35.046,35.681
35.028,35.66
35.012,35.637
35,35.612
34.991,35.585
34.985,35.556
34.982,35.528
34.98,35.499
34.98,35.472
34.98,35.447
34.981,35.424
34.982,35.403
34.982,35.385
34.983,35.37
34.982,35.356
34.979,35.343
34.975,35.33
34.969,35.316
34.958,35.301
34.94,35.285
34.915,35.267
34.884,35.247
34.848,35.227
34.811,35.206
34.775,35.185
34.74,35.164
34.708,35.145
34.68,35.128
34.658,35.113
34.642,35.101
34.633,35.091
34.63,35.082
34.633,35.075
34.642,35.068
34.654,35.061
34.67,35.056
34.688,35.053
34.708,35.052
34.729,35.052
34.748,35.054
34.765,35.059
34.778,35.066
34.787,35.075
34.792,35.086
34.794,35.097
34.793,35.109
34.792,35.12
34.791,35.13
34.791,35.139
34.793,35.146
34.801,35.152
34.815,35.155
34.837,35.157
34.869,35.159
34.912,35.159
34.965,35.16
35.03,35.161
35.103,35.162
35.185,35.162
35.274,35.161
35.367,35.158
35.465,35.154
35.566,35.152
35.667,35.156
35.769,35.167
35.868,35.182
35.963,35.2
36.052,35.219
36.132,35.235
36.202,35.246
36.261,35.251
36.308,35.249
36.344,35.239
36.367,35.22
36.378,35.194
36.377,35.159
36.365,35.118
36.343,35.073
36.314,35.024
36.279,34.976
36.239,34.929
36.196,34.886
36.151,34.847
36.107,34.815
36.064,34.788
36.024,34.766
35.988,34.75
35.957,34.736
35.93,34.726
35.91,34.716
35.895,34.707
35.885,34.697
35.88,34.689
35.879,34.681
35.882,34.675
35.887,34.67
35.893,34.668
35.899,34.666
35.904,34.665
35.906,34.663
35.904,34.661
35.9,34.656
35.892,34.65
35.879,34.643
35.862,34.634
35.84,34.625
35.814,34.616
35.785,34.606
35.755,34.597
35.724,34.588
35.695,34.58
35.668,34.573
35.645,34.566
35.626,34.56
35.612,34.554
35.604,34.548
35.601,34.544
35.604,34.544
35.612,34.547
35.624,34.558
35.64,34.576
35.658,34.603
35.678,34.64
35.7,34.685
35.723,34.738
35.745,34.799
35.766,34.865
35.785,34.936
35.801,35.01
35.812,35.086
35.819,35.163
35.821,35.241
35.816,35.318
35.806,35.393
35.789,35.465
35.768,35.534
35.743,35.598
35.715,35.658
35.684,35.711
35.652,35.757
35.62,35.795
35.589,35.825
35.56,35.844
35.534,35.854
35.511,35.856
35.491,35.85
35.475,35.837
35.461,35.821
35.45,35.802
35.44,35.782
35.432,35.76
35.424,35.738
35.417,35.716
35.409,35.692
35.401,35.666
35.391,35.639
35.379,35.612
35.365,35.585
35.35,35.559
35.333,35.535
35.314,35.512
35.293,35.492
35.269,35.474
35.243,35.458
35.216,35.445
35.186,35.434
35.155,35.425
35.124,35.418
35.093,35.412
35.065,35.406
35.039,35.399
35.016,35.388
34.996,35.374
34.98,35.356
34.967,35.337
34.959,35.317
34.954,35.298
34.953,35.282
34.953,35.268
34.955,35.259
34.959,35.253
34.962,35.251
34.965,35.252
34.967,35.255
34.967,35.26
34.965,35.267
34.961,35.275
34.955,35.285
34.947,35.296
34.937,35.308
34.925,35.319
34.911,35.331
34.895,35.341
34.878,35.352
34.86,35.362
34.842,35.373
34.824,35.383
34.808,35.392
34.793,35.399
34.78,35.401
34.77,35.4
34.762,35.395
34.757,35.387
34.755,35.376
34.754,35.364
34.754,35.352
34.754,35.34
34.753,35.329
34.753,35.319
34.753,35.31
34.753,35.301
34.751,35.292
34.747,35.281
34.742,35.269
34.735,35.256
34.729,35.242
34.723,35.227
34.719,35.212
34.719,35.196
34.723,35.181
34.733,35.165
34.749,35.15
34.772,35.134
34.804,35.117
34.845,35.099
34.895,35.08
34.955,35.062
35.024,35.043
35.101,35.024
35.184,35.005
35.274,34.987
35.367,34.97
35.463,34.955
35.559,34.941
35.654,34.929
35.745,34.918
35.832,34.908
35.911,34.898
35.983,34.887
36.044,34.876
36.095,34.863
36.133,34.849
36.161,34.834
36.177,34.819
36.183,34.806
36.178,34.795
36.164,34.787
36.142,34.781
36.113,34.776
36.079,34.772
36.041,34.767
36.001,34.762
35.96,34.756
35.919,34.749
35.879,34.743
35.842,34.736
35.807,34.73
35.775,34.725
35.747,34.721
35.723,34.716
35.704,34.711
35.688,34.706
35.676,34.7
35.666,34.694
35.659,34.689
35.654,34.684
35.651,34.681
35.648,34.681
35.647,34.685
35.646,34.694
35.642,34.708
35.636,34.73
35.626,34.761
35.612,34.802
35.595,34.853
35.576,34.913
35.555,34.983
35.533,35.06
35.512,35.142
35.492,35.227
35.473,35.313
35.458,35.398
35.445,35.483
35.436,35.566
35.429,35.646
35.424,35.723
35.422,35.795
35.421,35.861
35.424,35.92
35.428,35.97
35.435,36.012
35.444,36.044
35.455,36.067
35.468,36.081
35.482,36.086
35.497,36.083
35.512,36.073
35.527,36.056
35.54,36.033
35.552,36.007
35.563,35.978
35.57,35.947
35.574,35.917
35.574,35.888
35.569,35.86
35.561,35.833
35.55,35.806
35.535,35.781
35.517,35.756
35.499,35.733
35.479,35.711
35.458,35.691
35.437,35.673
35.417,35.657
35.396,35.644
35.377,35.633
35.36,35.622
35.345,35.612
35.331,35.601
35.319,35.59
35.308,35.578
35.299,35.564
35.292,35.55
35.285,35.536
35.277,35.52
35.269,35.504
35.259,35.487
35.247,35.47
35.233,35.454
35.218,35.438
35.201,35.424
35.182,35.412
35.161,35.402
35.139,35.394
35.115,35.389
35.089,35.385
35.062,35.383
35.035,35.382
35.008,35.384
34.983,35.388
34.96,35.394
34.94,35.402
34.922,35.412
34.906,35.422
34.894,35.431
34.885,35.44
34.88,35.448
34.877,35.455
34.879,35.46
34.883,35.463
34.888,35.463
34.894,35.461
34.899,35.458
34.902,35.452
34.902,35.445
34.901,35.437
34.897,35.428
34.891,35.419
34.883,35.411
34.871,35.403
34.858,35.395
34.843,35.386
34.826,35.375
34.807,35.362
34.787,35.347
34.767,35.329
34.747,35.309
34.729,35.289
34.711,35.269
34.695,35.25
34.68,35.233
34.666,35.219
34.653,35.206
34.643,35.196
34.636,35.186
34.633,35.176
34.633,35.165
34.638,35.153
34.646,35.139
34.658,35.123
34.675,35.106
34.697,35.088
34.725,35.071
34.759,35.055
34.8,35.041
34.846,35.029
34.897,35.02
34.953,35.012
35.014,35.003
35.078,34.995
35.147,34.985
35.219,34.972
35.294,34.958
35.37,34.941
35.448,34.924
35.525,34.908
35.602,34.893
35.677,34.88
35.748,34.871
35.816,34.864
35.88,34.859
35.939,34.856
35.992,34.854
36.038,34.851
36.077,34.847
36.109,34.841
36.133,34.834
36.15,34.826
36.16,34.816
36.162,34.807
36.157,34.798
36.145,34.79
36.128,34.784
36.106,34.779
36.079,34.775
36.048,34.773
36.015,34.772
35.98,34.769
35.943,34.766
35.906,34.762
35.868,34.759
35.831,34.758
35.795,34.762
35.761,34.771
35.73,34.788
35.702,34.812
35.677,34.844
35.655,34.885
35.636,34.934
35.621,34.989
35.609,35.051
35.601,35.12
35.595,35.193
35.592,35.272
35.592,35.355
35.592,35.44
35.593,35.528
35.593,35.615
35.592,35.702
35.59,35.786
35.587,35.866
35.583,35.94
35.578,36.006
35.571,36.062
35.561,36.107
35.55,36.141
35.539,36.165
35.528,36.178
35.518,36.182
35.51,36.178
35.505,36.169
35.502,36.155
35.502,36.139
35.505,36.121
35.511,36.101
35.521,36.079
35.533,36.056
35.549,36.03
35.566,36.003
35.584,35.974
35.603,35.945
35.621,35.916
35.639,35.888
35.654,35.86
35.667,35.833
35.677,35.807
35.682,35.784
35.684,35.763
35.681,35.744
35.675,35.727
35.664,35.713
35.65,35.701
35.633,35.69
35.613,35.68
35.59,35.67
35.565,35.659
35.539,35.647
35.51,35.636
35.474,35.624
35.43,35.612
35.376,35.6
35.317,35.588
35.254,35.576
35.193,35.565
35.136,35.554
35.087,35.544
35.048,35.535
35.02,35.528
35.004,35.521
34.998,35.517
35.003,35.513
35.014,35.511
35.03,35.51
35.05,35.51
35.071,35.511
35.091,35.513
35.11,35.517
35.126,35.522
35.137,35.529
35.142,35.538
35.14,35.548
35.132,35.558
35.118,35.567
35.098,35.575
35.074,35.581
35.046,35.586
35.017,35.588
34.986,35.589
34.955,35.587
34.925,35.583
34.897,35.578
34.873,35.571
34.851,35.562
34.834,35.55
34.822,35.533
34.814,35.511
34.81,35.485
34.809,35.454
34.812,35.421
34.817,35.388
34.823,35.356
34.829,35.327
34.833,35.3
34.836,35.277
34.837,35.257
34.835,35.241
34.83,35.228
34.822,35.219
34.81,35.212
34.797,35.208
34.781,35.206
34.766,35.204
34.751,35.204
34.738,35.203
34.729,35.203
34.724,35.203
34.727,35.203
34.737,35.202
34.757,35.202
34.786,35.2
34.826,35.195
34.877,35.188
34.939,35.178
35.01,35.164
35.092,35.148
35.18,35.131
35.275,35.113
35.374,35.097
35.475,35.082
35.577,35.069
35.677,35.059
35.773,35.049
35.863,35.041
35.947,35.033
36.023,35.025
36.091,35.017
36.151,35.007
36.201,34.997
36.241,34.986
36.272,34.974
36.293,34.961
36.307,34.948
36.313,34.934
36.314,34.921
36.309,34.908
36.299,34.896
36.286,34.886
36.268,34.876
36.249,34.867
36.228,34.857
36.208,34.845
36.189,34.83
36.171,34.813
36.155,34.794
36.139,34.775
36.124,34.757
36.11,34.742
36.095,34.732
36.079,34.728
36.062,34.729
36.043,34.737
36.023,34.749
36.001,34.766
35.976,34.787
35.95,34.812
35.923,34.842
35.894,34.879
35.864,34.922
35.833,34.973
35.802,35.031
35.771,35.097
35.74,35.169
35.711,35.247
35.684,35.328
35.659,35.412
35.638,35.497
35.622,35.581
35.608,35.662
35.599,35.74
35.594,35.811
35.593,35.875
35.595,35.932
35.601,35.981
35.61,36.024
35.621,36.06
35.634,36.089
35.649,36.112
35.665,36.128
35.68,36.136
35.695,36.136
35.709,36.127
35.721,36.11
35.73,36.088
35.737,36.062
35.741,36.033
35.742,36.003
35.739,35.973
35.735,35.944
35.729,35.916
35.722,35.89
35.715,35.866
35.707,35.843
35.7,35.823
35.692,35.803
35.684,35.785
35.676,35.767
35.667,35.749
35.659,35.731
35.65,35.712
35.642,35.692
35.634,35.673
35.626,35.655
35.618,35.64
35.609,35.627
35.6,35.616
35.589,35.608
35.577,35.599
35.563,35.589
35.546,35.578
35.527,35.564
35.504,35.549
35.479,35.534
35.452,35.519
35.422,35.507
35.391,35.497
35.358,35.49
35.324,35.487
35.29,35.485
35.256,35.485
35.222,35.486
35.19,35.488
35.161,35.49
35.134,35.492
35.11,35.495
35.09,35.498
35.073,35.501
35.059,35.503
35.05,35.505
35.044,35.507
35.04,35.509
35.039,35.511
35.039,35.514
35.04,35.518
35.04,35.521
35.04,35.523
35.037,35.522
35.031,35.519
35.024,35.514
35.013,35.506
35,35.495
34.984,35.483
34.965,35.47
34.944,35.456
34.921,35.442
34.896,35.427
34.872,35.411
34.849,35.393
34.826,35.375
34.806,35.355
34.787,35.333
34.77,35.312
34.756,35.289
34.744,35.267
34.734,35.243
34.729,35.22
34.728,35.197
34.732,35.174
34.74,35.151
34.754,35.129
34.772,35.107
34.795,35.086
34.823,35.065
34.857,35.044
34.898,35.024
34.945,35.005
34.999,34.987
35.058,34.969
35.118,34.953
35.174,34.937
35.225,34.922
35.273,34.908
35.32,34.895
35.368,34.882
35.419,34.869
35.476,34.856
35.54,34.843
35.612,34.829
35.69,34.816
35.773,34.802
35.86,34.79
35.95,34.778
36.038,34.768
36.125,34.759
36.207,34.752
36.283,34.745
36.351,34.739
36.409,34.734
36.457,34.73
36.493,34.725
36.516,34.719
36.528,34.712
36.529,34.703
36.52,34.694
36.501,34.684
36.475,34.673
36.442,34.663
36.404,34.653
36.361,34.645
36.314,34.639
36.265,34.633
36.215,34.629
36.165,34.626
36.116,34.622
36.071,34.618
36.03,34.612
35.995,34.605
35.965,34.596
35.939,34.586
35.919,34.575
35.902,34.565
35.889,34.556
35.88,34.55
35.873,34.548
35.869,34.552
35.866,34.562
35.866,34.579
35.867,34.603
35.869,34.632
35.872,34.667
35.874,34.708
35.876,34.755
35.876,34.809
35.874,34.869
35.869,34.936
35.861,35.01
35.85,35.085
35.837,35.154
35.822,35.218
35.808,35.273
35.794,35.322
35.782,35.364
35.772,35.402
35.763,35.439
35.757,35.477
35.754,35.516
35.754,35.558
35.756,35.601
35.76,35.646
35.766,35.692
35.775,35.737
35.787,35.78
35.801,35.821
35.817,35.856
35.834,35.885
35.851,35.905
35.867,35.917
35.881,35.918
35.891,35.911
35.898,35.894
35.9,35.871
35.899,35.842
35.893,35.81
35.883,35.776
35.868,35.742
35.849,35.708
35.825,35.676
35.798,35.645
35.768,35.615
35.736,35.586
35.702,35.559
35.667,35.534
35.632,35.511
35.598,35.491
35.565,35.473
35.534,35.457
35.505,35.443
35.478,35.432
35.455,35.423
35.436,35.415
35.421,35.408
35.409,35.4
35.399,35.392
35.392,35.382
35.386,35.37
35.382,35.357
35.377,35.342
35.372,35.328
35.365,35.314
35.355,35.301
35.342,35.291
35.326,35.284
35.307,35.279
35.286,35.277
35.262,35.277
35.236,35.278
35.208,35.281
35.179,35.285
35.149,35.29
