Trial 3:3back,Trial 5:3back
36.277,35.209
36.292,35.167
36.297,35.125
36.294,35.082
36.283,35.041
36.266,35.002
36.244,34.966
36.217,34.932
36.186,34.899
36.154,34.869
36.122,34.842
36.091,34.818
36.063,34.798
36.038,34.781
36.014,34.767
35.993,34.757
35.971,34.75
35.95,34.747
35.929,34.746
35.907,34.75
35.886,34.757
35.864,34.768
35.841,34.782
35.817,34.797
35.79,34.812
35.761,34.827
35.73,34.84
35.696,34.852
35.661,34.863
35.624,34.872
35.585,34.878
35.545,34.881
35.504,34.881
35.463,34.875
35.422,34.866
35.381,34.853
35.342,34.836
35.304,34.817
35.269,34.796
35.235,34.774
35.205,34.751
35.177,34.729
35.153,34.707
35.133,34.686
35.119,34.666
35.11,34.647
35.104,34.628
35.101,34.608
35.101,34.586
35.102,34.564
35.106,34.539
35.112,34.513
35.119,34.485
35.129,34.456
35.14,34.425
35.152,34.394
35.166,34.361
35.181,34.328
35.197,34.294
35.214,34.26
35.232,34.228
35.25,34.198
35.268,34.171
35.285,34.146
35.3,34.123
35.315,34.101
35.327,34.079
35.337,34.056
35.344,34.034
35.347,34.014
35.346,33.995
35.341,33.977
35.33,33.96
35.315,33.944
35.296,33.927
35.273,33.912
35.248,33.897
35.221,33.884
35.193,33.872
35.164,33.861
35.137,33.85
35.11,33.84
35.085,33.83
35.061,33.822
35.039,33.815
35.018,33.81
34.997,33.806
34.977,33.804
34.956,33.801
34.935,33.799
34.912,33.796
34.888,33.793
34.861,33.789
34.833,33.785
34.804,33.78
34.774,33.773
34.742,33.764
34.709,33.754
34.675,33.743
34.641,33.73
34.606,33.716
34.572,33.7
34.537,33.681
34.502,33.661
34.468,33.638
34.434,33.612
34.401,33.584
34.372,33.554
34.347,33.522
34.326,33.492
34.309,33.465
34.297,33.44
34.287,33.418
34.279,33.397
34.273,33.378
34.268,33.36
34.262,33.343
34.256,33.327
34.249,33.314
34.242,33.303
34.235,33.295
34.226,33.291
34.216,33.292
34.205,33.299
34.193,33.312
34.18,33.332
34.166,33.361
34.152,33.399
34.137,33.446
34.122,33.504
34.108,33.571
34.092,33.646
34.074,33.73
34.053,33.821
34.031,33.921
34.007,34.028
33.981,34.142
33.956,34.261
33.932,34.382
33.911,34.502
33.893,34.619
33.878,34.73
33.866,34.835
33.856,34.933
33.849,35.024
33.845,35.108
33.841,35.184
33.84,35.251
33.838,35.31
33.837,35.36
33.835,35.402
33.83,35.435
33.822,35.459
33.813,35.474
33.801,35.482
33.787,35.482
33.772,35.476
33.755,35.465
33.738,35.449
33.72,35.429
33.7,35.407
33.681,35.383
33.662,35.358
33.644,35.332
33.629,35.307
33.615,35.281
33.604,35.257
33.595,35.233
33.591,35.211
33.591,35.189
33.598,35.169
33.613,35.149
33.635,35.13
33.668,35.112
33.71,35.093
33.763,35.076
33.828,35.059
33.905,35.041
33.996,35.022
34.099,35
34.217,34.975
34.347,34.946
34.488,34.915
34.639,34.883
34.799,34.852
34.964,34.823
35.133,34.796
35.303,34.772
35.472,34.748
35.637,34.726
35.795,34.704
35.943,34.684
36.08,34.666
36.203,34.651
36.314,34.639
36.41,34.629
36.492,34.62
36.561,34.609
36.616,34.593
36.658,34.572
36.689,34.55
36.708,34.527
36.718,34.507
36.722,34.491
36.719,34.482
36.713,34.48
36.702,34.487
36.689,34.502
36.674,34.524
36.656,34.551
36.638,34.583
36.617,34.617
36.595,34.653
36.572,34.686
36.548,34.718
36.521,34.745
36.493,34.768
36.465,34.785
36.435,34.797
36.404,34.803
36.373,34.802
36.342,34.795
36.312,34.781
36.282,34.763
36.253,34.741
36.225,34.717
36.197,34.692
36.167,34.664
36.137,34.636
36.104,34.607
36.069,34.577
36.031,34.547
35.991,34.518
35.948,34.49
35.904,34.465
35.859,34.442
35.814,34.421
35.768,34.402
35.724,34.383
35.682,34.366
35.643,34.349
35.607,34.332
35.576,34.316
35.55,34.3
35.528,34.284
35.511,34.267
35.5,34.249
35.495,34.23
35.495,34.21
35.5,34.19
35.508,34.17
35.52,34.15
35.535,34.131
35.55,34.111
35.564,34.09
35.578,34.068
35.59,34.046
35.6,34.022
35.608,33.998
35.613,33.975
35.617,33.952
35.618,33.93
35.617,33.91
35.615,33.891
35.611,33.874
35.607,33.859
35.604,33.846
35.602,33.834
35.601,33.823
35.602,33.814
35.605,33.806
35.609,33.8
35.614,33.796
35.62,33.795
35.626,33.796
35.63,33.799
35.631,33.803
35.628,33.807
35.62,33.809
35.607,33.811
35.587,33.813
35.562,33.814
35.531,33.816
35.496,33.818
35.456,33.819
35.413,33.819
35.367,33.817
35.319,33.813
35.271,33.804
35.224,33.791
35.18,33.774
35.138,33.754
35.098,33.734
35.062,33.713
35.027,33.694
34.996,33.676
34.967,33.66
34.94,33.646
34.915,33.635
34.891,33.627
34.868,33.621
34.846,33.618
34.824,33.618
34.802,33.62
34.78,33.624
34.757,33.63
34.734,33.638
34.71,33.65
34.684,33.666
34.657,33.685
34.629,33.705
34.6,33.722
34.57,33.736
34.539,33.749
34.509,33.765
34.479,33.789
34.448,33.823
34.417,33.872
34.386,33.938
34.357,34.019
34.33,34.115
34.306,34.227
34.286,34.351
34.27,34.487
34.258,34.632
34.251,34.783
34.246,34.938
34.244,35.093
34.243,35.244
34.243,35.389
34.243,35.526
34.241,35.652
34.236,35.767
34.229,35.869
34.218,35.958
34.205,36.034
34.189,36.095
34.172,36.142
34.153,36.178
34.133,36.202
34.112,36.216
34.091,36.223
34.07,36.223
34.049,36.218
34.029,36.208
34.011,36.194
33.993,36.177
33.976,36.158
33.959,36.137
33.942,36.114
33.926,36.09
33.911,36.064
33.897,36.037
33.884,36.01
33.873,35.982
33.864,35.954
33.856,35.926
33.851,35.898
33.847,35.869
33.846,35.84
33.845,35.811
33.846,35.78
33.845,35.75
33.842,35.719
33.838,35.688
33.83,35.657
33.819,35.625
33.805,35.593
33.787,35.559
33.765,35.522
33.74,35.484
33.713,35.443
33.683,35.401
33.651,35.36
33.619,35.318
33.589,35.278
33.56,35.239
33.536,35.202
33.518,35.168
33.505,35.138
33.498,35.111
33.495,35.089
33.496,35.072
33.5,35.059
33.509,35.05
33.522,35.043
33.542,35.037
33.568,35.031
33.603,35.027
33.647,35.023
33.703,35.021
33.773,35.02
33.857,35.02
33.956,35.02
34.071,35.022
34.202,35.025
34.349,35.029
34.51,35.033
34.683,35.037
34.865,35.041
35.055,35.045
35.249,35.048
35.444,35.05
35.636,35.052
35.822,35.053
35.998,35.052
36.164,35.049
36.318,35.045
36.458,35.04
36.585,35.036
36.698,35.031
36.798,35.026
36.885,35.02
36.961,35.012
37.027,35.003
37.083,34.991
37.131,34.974
37.172,34.953
37.205,34.925
37.231,34.892
37.251,34.854
37.265,34.814
37.273,34.774
37.275,34.734
37.271,34.695
37.261,34.658
37.244,34.621
37.221,34.586
37.191,34.552
37.157,34.52
37.12,34.491
37.081,34.464
37.042,34.44
37.004,34.415
36.967,34.392
36.933,34.368
36.904,34.346
36.879,34.325
36.858,34.308
36.843,34.294
36.831,34.285
36.822,34.28
36.815,34.279
36.807,34.281
36.799,34.284
36.787,34.287
36.773,34.288
36.754,34.287
36.731,34.283
36.701,34.276
36.664,34.265
36.62,34.25
36.569,34.233
36.514,34.212
36.458,34.188
36.402,34.163
36.348,34.135
36.297,34.107
36.252,34.078
36.213,34.049
36.18,34.022
36.154,33.997
36.134,33.974
36.12,33.955
36.111,33.938
36.106,33.925
36.103,33.915
36.103,33.907
36.103,33.901
36.103,33.897
36.105,33.894
36.108,33.893
36.113,33.892
36.119,33.892
36.126,33.892
36.133,33.891
36.14,33.888
36.148,33.885
36.158,33.88
36.168,33.874
36.18,33.867
36.192,33.858
36.203,33.847
36.213,33.833
36.221,33.815
36.226,33.794
36.227,33.77
36.223,33.746
36.215,33.72
36.202,33.695
36.184,33.669
36.162,33.642
36.137,33.614
36.109,33.586
36.079,33.559
36.048,33.537
36.014,33.521
35.979,33.512
35.941,33.512
35.901,33.519
35.86,33.533
35.819,33.556
35.78,33.587
35.742,33.628
35.705,33.68
35.67,33.744
35.636,33.82
35.602,33.907
35.568,34.006
35.534,34.115
35.499,34.234
35.463,34.361
35.425,34.495
35.388,34.634
35.35,34.777
35.313,34.92
35.277,35.063
35.243,35.204
35.21,35.341
35.179,35.472
35.149,35.596
35.119,35.713
35.09,35.821
35.061,35.92
35.032,36.011
35.004,36.091
34.977,36.162
34.95,36.224
34.923,36.275
34.897,36.317
34.871,36.35
34.845,36.375
34.821,36.391
34.799,36.399
34.78,36.4
34.763,36.395
34.747,36.387
34.734,36.376
34.722,36.362
34.711,36.346
34.701,36.326
34.69,36.304
34.68,36.28
34.668,36.254
34.656,36.229
34.642,36.206
34.627,36.184
34.611,36.164
34.594,36.145
34.576,36.127
34.559,36.108
34.542,36.091
34.526,36.075
34.51,36.058
34.495,36.042
34.48,36.025
34.465,36.007
34.451,35.989
34.438,35.97
34.425,35.949
34.413,35.927
34.401,35.903
34.388,35.876
34.375,35.846
34.359,35.808
34.343,35.76
34.325,35.704
34.306,35.644
34.285,35.582
34.263,35.523
34.239,35.47
34.215,35.426
34.191,35.393
34.165,35.37
34.141,35.359
34.116,35.359
34.093,35.368
34.069,35.387
34.047,35.414
34.025,35.447
34.005,35.484
33.986,35.522
33.969,35.559
33.952,35.594
33.934,35.627
33.916,35.656
33.896,35.682
33.874,35.704
33.85,35.722
33.825,35.736
33.8,35.744
33.775,35.749
33.749,35.75
33.724,35.75
33.699,35.747
33.675,35.744
33.655,35.739
33.64,35.731
33.631,35.721
33.631,35.708
33.639,35.692
33.658,35.675
33.687,35.657
33.729,35.638
33.784,35.618
33.854,35.598
33.938,35.578
34.037,35.557
34.151,35.537
34.28,35.515
34.423,35.494
34.578,35.471
34.747,35.448
34.927,35.424
35.117,35.4
35.314,35.375
35.513,35.352
35.713,35.329
35.911,35.306
36.104,35.284
36.289,35.263
36.465,35.241
36.63,35.218
36.781,35.195
36.917,35.171
37.037,35.147
37.141,35.122
37.23,35.096
37.303,35.071
37.362,35.044
37.408,35.017
37.441,34.99
37.463,34.963
37.475,34.937
37.478,34.914
37.475,34.895
37.466,34.878
37.454,34.865
37.44,34.854
37.424,34.846
37.408,34.842
37.392,34.841
37.376,34.843
37.36,34.845
37.345,34.847
37.329,34.849
37.312,34.85
37.295,34.849
37.276,34.847
37.256,34.844
37.235,34.843
37.212,34.843
37.189,34.844
37.164,34.849
37.138,34.855
37.109,34.864
37.078,34.874
37.045,34.887
37.011,34.901
36.975,34.916
36.939,34.931
36.903,34.946
36.866,34.961
36.828,34.974
36.789,34.986
36.749,34.997
36.709,35.006
36.668,35.013
36.627,35.019
36.585,35.023
36.543,35.024
36.499,35.024
36.453,35.022
36.407,35.018
36.362,35.015
36.319,35.013
36.279,35.013
36.242,35.015
36.21,35.02
36.182,35.028
36.16,35.037
36.144,35.05
36.133,35.066
36.129,35.088
36.13,35.117
36.138,35.156
36.15,35.204
36.166,35.264
36.185,35.335
36.205,35.418
36.226,35.513
36.246,35.618
36.262,35.733
36.275,35.857
36.284,35.987
36.287,36.122
36.285,36.26
36.278,36.399
36.267,36.538
36.252,36.676
36.233,36.811
36.212,36.942
36.189,37.067
36.164,37.183
36.137,37.29
36.109,37.386
36.08,37.47
36.052,37.542
36.025,37.602
35.999,37.65
35.975,37.685
35.951,37.708
35.927,37.719
35.902,37.72
35.876,37.711
35.849,37.695
35.819,37.672
35.788,37.644
35.754,37.611
35.717,37.574
35.677,37.533
35.637,37.489
35.596,37.442
35.557,37.392
35.518,37.338
35.479,37.282
35.44,37.222
35.4,37.16
35.36,37.096
35.319,37.03
35.279,36.965
35.239,36.901
35.201,36.838
35.163,36.779
35.126,36.721
35.088,36.666
35.051,36.612
35.015,36.561
34.98,36.512
34.947,36.465
34.916,36.42
34.885,36.376
34.852,36.333
34.816,36.291
34.776,36.248
34.733,36.204
34.689,36.158
34.643,36.112
34.6,36.065
34.559,36.018
34.522,35.97
34.491,35.921
34.466,35.87
34.446,35.82
34.432,35.773
34.421,35.728
34.414,35.688
34.41,35.653
34.407,35.624
34.404,35.6
34.4,35.581
34.394,35.567
34.387,35.558
34.38,35.552
34.372,35.55
34.363,35.551
34.353,35.554
34.342,35.558
34.328,35.562
34.313,35.568
34.298,35.574
34.281,35.582
34.264,35.592
34.247,35.603
34.23,35.615
34.213,35.629
34.197,35.642
34.181,35.657
34.165,35.671
34.15,35.685
34.135,35.699
34.119,35.712
34.104,35.724
34.089,35.732
34.073,35.735
34.058,35.732
34.042,35.722
34.025,35.706
34.009,35.684
33.991,35.656
33.973,35.622
33.954,35.581
33.934,35.534
33.914,35.481
33.894,35.424
33.875,35.364
33.858,35.303
33.842,35.244
33.825,35.186
33.809,35.131
33.792,35.079
33.773,35.03
33.754,34.983
33.733,34.939
33.711,34.897
33.688,34.858
33.664,34.821
33.64,34.786
33.616,34.752
33.593,34.72
33.57,34.689
33.548,34.66
33.524,34.634
33.501,34.61
33.476,34.589
33.452,34.571
33.428,34.557
33.405,34.546
33.385,34.537
33.368,34.528
33.356,34.519
33.35,34.508
33.352,34.496
33.364,34.48
33.388,34.462
33.425,34.442
33.478,34.42
33.548,34.398
33.636,34.375
33.742,34.353
33.865,34.332
34.006,34.31
34.161,34.288
34.331,34.266
34.513,34.242
34.707,34.218
34.908,34.194
35.115,34.171
35.324,34.151
35.533,34.132
35.738,34.115
35.938,34.099
36.13,34.082
36.313,34.065
36.484,34.047
36.641,34.03
36.783,34.015
36.908,34.001
37.016,33.987
37.107,33.974
37.182,33.959
37.24,33.942
37.284,33.924
37.315,33.906
37.335,33.889
37.343,33.873
37.344,33.858
37.337,33.845
37.326,33.834
37.311,33.826
37.294,33.822
37.274,33.823
37.254,33.831
37.233,33.845
37.21,33.867
37.185,33.898
37.159,33.94
37.132,33.994
37.104,34.059
37.075,34.138
37.047,34.23
37.02,34.336
36.994,34.453
36.97,34.58
36.949,34.718
36.929,34.863
36.91,35.014
36.892,35.169
36.874,35.326
36.853,35.482
36.832,35.637
36.808,35.787
36.782,35.932
36.754,36.071
36.722,36.2
36.686,36.322
36.647,36.433
36.603,36.535
36.557,36.627
36.508,36.708
36.457,36.777
36.404,36.834
36.351,36.878
36.299,36.91
36.248,36.933
36.201,36.947
36.157,36.954
36.119,36.954
36.087,36.947
36.06,36.933
36.039,36.913
36.022,36.889
36.008,36.863
35.997,36.835
35.989,36.807
35.984,36.781
35.982,36.755
35.983,36.731
35.985,36.708
35.988,36.687
35.993,36.668
35.997,36.651
36.003,36.635
36.009,36.62
36.016,36.604
36.022,36.588
36.028,36.571
36.033,36.552
36.036,36.53
36.039,36.506
36.041,36.477
36.04,36.446
36.038,36.411
36.032,36.372
36.025,36.33
36.016,36.284
36.006,36.237
35.994,36.188
35.98,36.139
35.964,36.091
35.947,36.044
35.928,35.996
35.906,35.949
35.881,35.904
35.853,35.863
35.823,35.827
35.79,35.796
35.755,35.772
35.718,35.753
35.678,35.736
35.636,35.722
35.591,35.71
35.544,35.701
35.494,35.696
35.444,35.693
35.392,35.693
35.341,35.697
35.292,35.704
35.245,35.712
35.2,35.723
35.158,35.736
35.12,35.751
35.087,35.767
35.06,35.783
35.036,35.797
35.015,35.808
34.995,35.815
34.975,35.818
34.955,35.817
34.933,35.811
34.909,35.801
34.882,35.787
34.854,35.769
34.823,35.749
34.79,35.725
34.755,35.699
34.718,35.67
34.681,35.638
34.645,35.604
34.609,35.568
34.575,35.531
34.542,35.491
34.51,35.45
34.481,35.408
34.453,35.366
34.428,35.325
34.405,35.284
34.383,35.245
34.362,35.206
34.342,35.169
34.321,35.132
34.3,35.095
34.279,35.057
34.259,35.021
34.241,34.986
34.224,34.952
34.208,34.921
34.193,34.89
34.178,34.86
34.164,34.83
34.151,34.801
34.138,34.772
34.125,34.744
34.114,34.719
34.103,34.695
34.093,34.672
34.084,34.648
34.074,34.624
34.064,34.599
34.053,34.572
34.041,34.544
34.027,34.516
34.012,34.487
33.995,34.459
33.977,34.431
33.957,34.404
33.935,34.378
33.913,34.354
33.889,34.332
33.866,34.313
33.843,34.297
33.821,34.284
33.798,34.274
33.776,34.267
33.754,34.261
33.734,34.258
33.714,34.256
33.695,34.254
33.678,34.254
33.661,34.253
33.645,34.252
33.629,34.249
33.613,34.246
33.596,34.24
33.581,34.234
33.567,34.226
33.554,34.216
33.541,34.204
33.529,34.19
33.516,34.173
33.503,34.156
33.489,34.139
33.474,34.121
33.457,34.103
33.438,34.087
33.416,34.073
33.391,34.06
33.364,34.049
33.336,34.038
33.306,34.029
33.275,34.023
33.245,34.018
33.216,34.015
33.19,34.014
33.167,34.014
33.146,34.016
33.129,34.019
33.117,34.023
33.111,34.03
33.111,34.041
33.12,34.057
33.138,34.08
33.167,34.111
33.208,34.152
33.264,34.201
33.336,34.262
33.424,34.333
33.53,34.416
33.653,34.51
33.792,34.616
33.947,34.729
34.116,34.846
34.296,34.967
34.484,35.09
34.679,35.215
34.877,35.342
35.076,35.471
35.273,35.602
35.467,35.735
35.653,35.868
35.832,35.998
36,36.126
36.157,36.248
36.303,36.363
36.436,36.47
36.557,36.568
36.664,36.656
36.757,36.734
36.839,36.798
36.908,36.851
36.967,36.891
37.017,36.919
37.059,36.936
37.094,36.943
37.121,36.94
37.142,36.927
37.155,36.906
37.16,36.877
37.158,36.843
37.148,36.804
37.13,36.764
37.105,36.723
37.073,36.682
37.034,36.641
36.991,36.601
36.944,36.563
36.896,36.525
36.847,36.488
36.798,36.453
36.752,36.419
36.707,36.385
36.665,36.351
36.627,36.317
36.593,36.282
36.565,36.245
36.54,36.207
36.519,36.168
36.5,36.127
36.481,36.086
36.46,36.043
36.437,35.999
36.41,35.953
36.377,35.905
36.339,35.856
36.295,35.808
36.247,35.762
36.193,35.717
36.137,35.675
36.079,35.636
36.021,35.599
35.963,35.566
35.908,35.536
35.857,35.51
35.811,35.487
35.769,35.468
35.734,35.452
35.704,35.438
35.682,35.427
35.667,35.417
35.66,35.409
35.659,35.404
35.663,35.402
35.672,35.403
35.684,35.408
35.7,35.414
35.717,35.422
35.735,35.431
35.755,35.44
35.776,35.45
35.799,35.46
35.823,35.471
35.846,35.482
35.867,35.492
35.886,35.502
35.901,35.51
35.912,35.516
35.92,35.521
35.923,35.522
35.924,35.521
35.921,35.517
35.915,35.51
35.907,35.5
35.896,35.489
35.881,35.476
35.861,35.46
35.837,35.444
35.809,35.427
35.777,35.41
35.744,35.391
35.709,35.37
35.673,35.346
35.636,35.318
35.598,35.287
35.56,35.254
35.522,35.219
35.484,35.183
35.447,35.145
35.411,35.105
35.375,35.063
35.34,35.019
35.305,34.973
35.27,34.927
35.235,34.882
35.2,34.838
35.165,34.795
35.129,34.754
35.093,34.714
35.056,34.674
35.02,34.636
34.984,34.6
34.949,34.568
34.913,34.54
34.879,34.515
34.845,34.492
34.813,34.472
34.782,34.453
34.75,34.435
34.718,34.418
34.685,34.402
34.652,34.387
34.619,34.372
34.588,34.356
34.559,34.34
34.531,34.324
34.505,34.308
34.479,34.292
34.454,34.276
34.429,34.261
34.404,34.247
34.378,34.234
34.353,34.224
34.328,34.217
34.304,34.213
34.28,34.212
34.257,34.212
34.233,34.214
34.209,34.217
34.186,34.22
34.165,34.222
34.145,34.222
34.127,34.221
34.109,34.218
34.094,34.213
34.08,34.206
34.069,34.196
34.06,34.185
34.053,34.173
34.047,34.16
34.041,34.146
34.033,34.132
34.024,34.118
34.014,34.104
34.002,34.09
33.99,34.076
33.977,34.063
33.963,34.051
33.95,34.04
33.938,34.029
33.927,34.019
33.916,34.01
33.905,34.001
33.893,33.993
33.881,33.984
33.867,33.976
33.853,33.965
33.837,33.953
33.821,33.939
33.804,33.925
33.786,33.913
33.768,33.903
33.748,33.897
33.728,33.892
33.707,33.887
33.685,33.88
33.663,33.873
33.64,33.863
33.616,33.854
33.593,33.844
33.569,33.835
33.546,33.825
33.522,33.814
33.498,33.801
33.473,33.786
33.449,33.768
33.426,33.749
33.405,33.729
33.386,33.709
33.368,33.689
33.351,33.671
33.335,33.655
33.321,33.642
33.31,33.633
33.304,33.629
33.306,33.632
33.319,33.642
33.344,33.66
33.382,33.688
33.435,33.726
33.502,33.776
33.584,33.836
33.681,33.907
33.792,33.99
33.917,34.085
34.057,34.19
34.208,34.305
34.371,34.428
34.544,34.558
34.727,34.693
34.916,34.833
35.111,34.975
35.31,35.118
35.511,35.26
35.711,35.402
35.907,35.541
36.097,35.676
36.279,35.807
36.451,35.933
36.613,36.052
36.761,36.165
36.896,36.269
37.015,36.365
37.119,36.451
37.207,36.524
37.28,36.586
37.336,36.635
37.379,36.673
37.408,36.701
37.425,36.722
37.433,36.734
37.432,36.739
37.423,36.736
37.41,36.725
37.392,36.708
37.372,36.686
37.349,36.66
37.326,36.63
37.303,36.597
37.279,36.563
37.255,36.526
37.232,36.488
37.209,36.449
37.187,36.41
37.165,36.37
37.142,36.328
37.118,36.284
37.091,36.24
37.061,36.194
37.029,36.148
36.995,36.103
36.959,36.058
36.921,36.015
36.882,35.973
36.842,35.932
36.801,35.891
36.76,35.844
36.719,35.791
36.679,35.732
36.64,35.671
36.602,35.609
36.564,35.55
36.526,35.496
36.488,35.45
36.45,35.413
36.412,35.384
36.373,35.364
36.335,35.354
36.296,35.353
36.256,35.361
36.215,35.376
36.176,35.397
36.14,35.421
36.107,35.447
36.08,35.473
36.058,35.499
36.04,35.525
36.027,35.551
36.017,35.577
36.012,35.603
36.011,35.627
36.014,35.65
36.022,35.671
36.033,35.689
36.048,35.707
36.063,35.725
36.08,35.741
36.096,35.757
36.112,35.773
36.127,35.787
36.14,35.801
36.149,35.813
36.155,35.824
36.157,35.833
36.155,35.839
36.149,35.843
36.138,35.844
36.124,35.843
36.107,35.838
36.087,35.831
36.065,35.821
36.039,35.808
36.012,35.79
35.982,35.769
35.951,35.744
35.92,35.715
35.888,35.683
35.855,35.647
35.821,35.611
35.787,35.575
35.752,35.539
35.716,35.504
35.679,35.47
35.642,35.436
35.605,35.401
35.566,35.367
35.527,35.335
35.486,35.305
35.444,35.279
35.402,35.256
35.358,35.236
35.314,35.219
35.269,35.204
35.224,35.19
35.178,35.178
35.132,35.166
35.086,35.154
35.04,35.142
34.995,35.128
34.952,35.112
34.91,35.093
34.872,35.072
34.835,35.047
34.801,35.021
34.77,34.995
34.741,34.968
34.714,34.941
34.69,34.914
34.669,34.887
34.649,34.862
34.63,34.837
34.611,34.814
34.592,34.793
34.572,34.774
34.551,34.757
34.53,34.741
34.507,34.726
34.484,34.713
34.46,34.702
34.435,34.694
34.409,34.687
34.383,34.68
34.357,34.671
34.331,34.66
34.305,34.646
34.279,34.629
34.253,34.608
34.228,34.585
34.203,34.559
34.179,34.533
34.157,34.505
34.137,34.477
34.119,34.449
34.103,34.421
34.088,34.394
34.074,34.369
34.061,34.347
34.048,34.329
34.036,34.315
34.024,34.304
34.012,34.296
34.001,34.29
33.989,34.287
33.976,34.284
33.962,34.283
33.947,34.283
33.931,34.285
33.915,34.288
33.899,34.291
33.882,34.295
33.865,34.298
33.848,34.301
33.83,34.303
33.813,34.303
33.796,34.301
33.78,34.296
33.763,34.286
33.746,34.272
33.729,34.255
33.712,34.233
33.695,34.208
33.677,34.181
33.66,34.151
33.642,34.119
33.624,34.085
33.605,34.049
33.587,34.011
33.567,33.973
33.546,33.937
33.524,33.903
33.501,33.873
33.478,33.849
33.455,33.831
33.433,33.819
33.41,33.813
33.387,33.815
33.364,33.825
33.34,33.844
33.316,33.876
33.293,33.921
33.272,33.978
33.253,34.049
33.237,34.131
33.223,34.225
33.213,34.33
33.208,34.443
33.208,34.564
33.215,34.692
33.231,34.826
33.256,34.963
33.291,35.101
33.34,35.239
33.402,35.376
33.48,35.509
33.575,35.638
33.687,35.761
33.815,35.875
33.96,35.981
34.121,36.076
34.296,36.16
34.483,36.234
34.682,36.297
34.889,36.351
35.103,36.397
35.321,36.436
35.542,36.468
35.76,36.495
35.973,36.516
36.179,36.532
36.375,36.544
36.56,36.552
36.733,36.556
36.891,36.557
37.035,36.553
37.165,36.546
37.28,36.535
37.38,36.52
37.465,36.502
37.536,36.48
37.594,36.455
37.637,36.426
37.668,36.392
37.687,36.353
37.696,36.306
37.696,36.253
37.689,36.193
37.675,36.128
37.657,36.058
37.635,35.984
37.61,35.906
37.581,35.824
37.549,35.737
37.516,35.648
37.482,35.556
37.446,35.463
37.409,35.369
37.37,35.275
37.332,35.182
37.296,35.09
37.261,35
37.228,34.914
37.196,34.832
37.166,34.757
37.137,34.69
37.109,34.631
37.082,34.582
37.055,34.541
37.029,34.509
37.002,34.485
36.976,34.469
36.949,34.461
36.921,34.461
36.892,34.471
36.861,34.491
36.827,34.518
36.791,34.553
36.752,34.594
36.711,34.64
36.667,34.689
36.623,34.742
36.578,34.795
36.533,34.847
36.489,34.897
36.447,34.945
36.406,34.989
36.367,35.029
36.331,35.065
36.299,35.099
36.271,35.13
36.247,35.159
36.229,35.186
36.217,35.211
36.21,35.235
36.209,35.255
36.211,35.271
36.216,35.283
36.224,35.291
36.233,35.294
36.241,35.292
36.25,35.284
36.258,35.271
36.265,35.253
36.271,35.229
36.276,35.202
36.281,35.173
36.284,35.143
36.285,35.113
36.283,35.083
36.279,35.052
36.272,35.02
36.262,34.984
36.249,34.946
36.234,34.907
36.217,34.867
36.198,34.828
36.177,34.789
36.153,34.751
36.126,34.714
36.096,34.677
36.064,34.641
36.03,34.609
35.992,34.581
35.952,34.557
35.91,34.537
35.866,34.52
35.821,34.505
35.776,34.492
35.73,34.48
35.684,34.468
35.638,34.457
35.592,34.446
35.545,34.433
35.5,34.419
35.454,34.404
35.409,34.388
35.365,34.372
35.321,34.356
35.277,34.341
35.234,34.327
35.192,34.315
35.152,34.304
35.113,34.294
35.075,34.285
35.038,34.278
35.002,34.271
34.967,34.265
34.934,34.259
34.901,34.253
34.87,34.246
34.84,34.237
34.81,34.225
34.781,34.211
34.752,34.194
34.723,34.174
34.694,34.152
34.664,34.128
34.634,34.103
34.603,34.078
34.571,34.052
34.538,34.028
34.505,34.004
34.47,33.981
34.435,33.96
34.401,33.941
34.367,33.923
34.336,33.907
34.308,33.892
34.282,33.878
34.259,33.864
34.238,33.851
34.22,33.839
34.203,33.826
34.187,33.814
34.172,33.802
34.156,33.789
34.141,33.775
34.124,33.759
34.105,33.743
34.086,33.725
34.066,33.707
34.047,33.688
34.029,33.67
34.012,33.652
33.997,33.633
33.982,33.612
33.968,33.589
33.952,33.565
33.933,33.542
33.913,33.518
33.89,33.495
33.866,33.471
33.841,33.444
33.816,33.415
33.792,33.384
33.768,33.353
33.746,33.324
33.727,33.301
33.711,33.284
33.696,33.275
33.683,33.274
33.669,33.283
33.655,33.301
33.64,33.331
33.626,33.373
33.612,33.427
33.599,33.494
33.585,33.573
33.571,33.663
33.555,33.765
33.537,33.877
33.517,33.999
33.495,34.131
33.472,34.271
33.447,34.418
33.421,34.57
33.395,34.726
33.367,34.883
33.34,35.041
33.312,35.197
33.283,35.349
33.254,35.496
33.226,35.636
33.198,35.767
33.173,35.887
33.149,35.995
33.128,36.091
33.109,36.174
33.093,36.243
33.08,36.299
33.071,36.342
33.069,36.372
33.075,36.392
33.092,36.401
33.119,36.4
33.157,36.39
33.207,36.373
33.27,36.349
33.347,36.322
33.438,36.291
33.543,36.257
33.664,36.219
33.8,36.177
33.95,36.13
34.115,36.08
34.293,36.028
34.483,35.973
34.683,35.915
34.89,35.855
35.102,35.792
35.316,35.724
35.53,35.652
35.74,35.578
35.946,35.504
36.146,35.431
36.337,35.361
36.518,35.294
36.688,35.231
36.844,35.171
36.987,35.116
37.115,35.064
37.229,35.017
37.326,34.972
37.408,34.931
37.474,34.892
37.525,34.855
37.561,34.82
37.583,34.786
37.592,34.754
37.591,34.723
37.581,34.694
37.563,34.666
37.538,34.641
37.508,34.619
37.475,34.601
37.438,34.588
37.4,34.58
37.361,34.579
37.322,34.583
37.283,34.593
37.245,34.607
37.209,34.625
37.174,34.647
37.141,34.67
37.11,34.693
37.081,34.716
37.053,34.738
37.025,34.761
36.997,34.785
36.968,34.808
36.937,34.831
36.905,34.852
36.871,34.872
36.836,34.891
36.799,34.91
36.762,34.928
36.724,34.946
36.684,34.964
36.644,34.979
36.602,34.992
36.56,35
36.517,35.004
36.476,35.003
36.434,34.997
36.393,34.987
36.353,34.973
36.313,34.954
36.273,34.931
36.233,34.905
36.194,34.877
36.156,34.849
36.118,34.822
36.082,34.795
36.047,34.769
36.015,34.744
35.986,34.718
35.961,34.691
35.941,34.664
35.927,34.636
35.918,34.61
35.914,34.585
35.915,34.56
35.92,34.536
35.929,34.512
35.941,34.487
35.957,34.461
35.975,34.431
35.993,34.4
36.01,34.367
36.025,34.333
36.036,34.298
36.043,34.262
36.046,34.224
36.044,34.184
36.037,34.144
36.025,34.105
36.009,34.068
35.989,34.033
35.966,34.001
35.94,33.973
35.912,33.947
35.882,33.925
35.852,33.906
35.821,33.892
35.788,33.882
35.753,33.875
35.718,33.871
35.682,33.868
35.646,33.864
35.611,33.86
35.576,33.854
35.541,33.845
35.504,33.833
35.465,33.82
35.424,33.805
35.383,33.787
35.34,33.768
35.298,33.747
35.255,33.726
35.213,33.705
35.172,33.686
35.133,33.67
35.096,33.657
35.06,33.647
35.024,33.638
34.988,33.627
34.952,33.608
34.915,33.577
34.877,33.535
34.838,33.486
34.798,33.436
34.758,33.387
34.717,33.344
34.677,33.309
34.637,33.284
34.598,33.269
34.558,33.264
34.519,33.27
34.48,33.284
34.442,33.305
34.408,33.331
34.375,33.361
34.346,33.391
34.319,33.42
34.294,33.447
34.27,33.472
34.249,33.493
34.23,33.511
34.211,33.526
34.193,33.537
34.176,33.545
34.158,33.551
34.139,33.555
34.118,33.559
34.096,33.564
34.073,33.57
34.049,33.58
34.023,33.593
33.996,33.612
33.97,33.638
33.944,33.672
33.919,33.715
33.895,33.77
33.874,33.838
33.854,33.918
33.836,34.01
33.819,34.112
33.803,34.223
33.789,34.342
33.775,34.469
33.762,34.601
33.75,34.739
33.742,34.88
33.736,35.024
33.733,35.166
33.731,35.306
33.73,35.442
33.729,35.572
33.726,35.694
33.721,35.807
33.714,35.911
33.705,36.005
33.693,36.087
33.677,36.159
33.658,36.219
33.637,36.27
33.612,36.313
33.586,36.349
33.558,36.378
33.529,36.4
33.5,36.416
33.47,36.424
33.44,36.427
33.41,36.422
33.38,36.412
33.35,36.397
33.321,36.378
33.292,36.355
33.264,36.329
33.237,36.301
33.211,36.271
33.188,36.239
33.166,36.205
33.146,36.171
33.128,36.135
33.112,36.098
33.098,36.061
33.084,36.023
33.07,35.985
33.055,35.946
33.039,35.908
33.024,35.87
33.011,35.832
33.002,35.794
33,35.755
33.003,35.714
33.014,35.671
33.033,35.624
33.063,35.575
33.104,35.524
33.16,35.474
33.23,35.423
33.317,35.374
33.421,35.327
33.542,35.281
33.683,35.238
33.842,35.199
34.018,35.163
34.21,35.133
34.413,35.108
34.625,35.088
34.843,35.074
35.063,35.064
35.283,35.06
35.499,35.06
35.71,35.066
35.914,35.077
36.108,35.093
36.291,35.113
36.462,35.136
36.619,35.16
36.762,35.184
36.892,35.208
37.007,35.234
37.109,35.26
37.196,35.287
37.267,35.316
37.324,35.346
37.365,35.377
37.391,35.409
37.404,35.442
37.404,35.474
37.394,35.505
37.373,35.535
37.344,35.562
37.309,35.587
37.269,35.608
37.227,35.625
37.183,35.638
37.139,35.647
37.095,35.651
37.053,35.651
37.013,35.647
36.975,35.638
36.937,35.623
36.901,35.602
36.866,35.578
36.832,35.55
36.798,35.52
36.766,35.488
36.733,35.455
36.7,35.42
36.666,35.384
36.632,35.347
36.596,35.307
36.557,35.267
36.516,35.225
36.471,35.184
36.423,35.143
36.371,35.103
36.317,35.063
36.26,35.022
36.202,34.98
36.145,34.937
36.088,34.895
36.034,34.855
35.982,34.817
35.933,34.782
35.887,34.749
35.844,34.718
35.803,34.687
35.767,34.656
35.735,34.625
35.707,34.595
35.682,34.564
35.661,34.535
35.643,34.506
35.628,34.477
35.618,34.449
35.612,34.423
35.61,34.399
35.613,34.378
35.62,34.36
35.63,34.345
35.642,34.333
35.657,34.324
35.673,34.316
35.69,34.31
35.707,34.305
35.725,34.299
35.742,34.294
35.759,34.287
35.773,34.28
35.784,34.27
35.793,34.258
35.798,34.245
35.799,34.23
35.797,34.214
35.79,34.197
35.78,34.179
35.765,34.16
35.747,34.139
35.726,34.118
35.703,34.096
35.679,34.074
35.653,34.053
35.624,34.033
35.593,34.014
35.558,33.997
35.518,33.982
35.474,33.968
35.426,33.955
35.375,33.945
35.323,33.936
35.271,33.929
35.22,33.926
35.17,33.927
35.123,33.932
35.079,33.941
35.039,33.957
35.002,33.982
34.967,34.014
34.935,34.055
34.903,34.105
34.87,34.164
34.837,34.231
34.802,34.306
34.767,34.389
34.73,34.479
34.693,34.577
34.654,34.684
34.613,34.799
34.571,34.924
34.527,35.057
34.484,35.196
34.441,35.34
34.402,35.487
34.365,35.635
34.332,35.784
34.304,35.93
34.279,36.074
34.258,36.214
34.241,36.349
34.226,36.478
34.214,36.6
34.204,36.715
34.194,36.821
34.185,36.919
34.175,37.007
34.164,37.086
34.153,37.156
34.14,37.217
34.126,37.268
34.109,37.312
34.09,37.346
34.07,37.372
34.048,37.39
34.024,37.401
34,37.403
33.977,37.398
33.953,37.387
33.93,37.37
33.908,37.348
33.888,37.321
33.869,37.289
33.853,37.254
33.838,37.215
33.825,37.172
33.814,37.125
33.803,37.074
33.793,37.022
33.782,36.97
33.77,36.92
33.758,36.872
33.745,36.825
33.732,36.78
33.72,36.734
33.707,36.686
33.694,36.636
33.681,36.583
33.668,36.528
33.654,36.471
33.641,36.412
33.629,36.349
33.617,36.284
33.605,36.217
33.592,36.152
33.578,36.09
33.563,36.031
33.548,35.979
33.531,35.932
33.515,35.893
33.498,35.862
33.481,35.84
33.463,35.826
33.444,35.82
33.424,35.821
33.404,35.828
33.384,35.839
33.362,35.853
33.34,35.871
33.317,35.89
33.292,35.911
33.267,35.933
33.241,35.955
33.215,35.977
33.191,35.998
33.17,36.018
33.153,36.034
33.143,36.048
33.14,36.06
33.147,36.07
33.165,36.077
33.195,36.083
33.239,36.087
33.299,36.09
33.374,36.09
33.465,36.088
33.572,36.084
33.696,36.078
33.836,36.071
33.99,36.064
34.158,36.056
34.339,36.048
34.53,36.039
34.73,36.029
34.936,36.017
35.144,36.002
35.352,35.987
35.558,35.97
35.759,35.951
35.951,35.931
36.133,35.908
36.302,35.882
36.456,35.852
36.593,35.82
36.714,35.786
36.819,35.751
36.908,35.717
36.983,35.684
37.044,35.652
37.093,35.621
37.13,35.589
37.155,35.558
37.17,35.526
37.177,35.495
37.176,35.465
37.17,35.435
37.158,35.405
37.14,35.376
37.118,35.348
37.091,35.319
37.061,35.291
37.028,35.263
36.991,35.234
36.952,35.204
36.911,35.174
36.867,35.144
36.821,35.115
36.773,35.088
36.724,35.062
36.674,35.04
36.623,35.021
36.57,35.005
36.516,34.991
36.46,34.978
36.403,34.967
36.345,34.956
36.288,34.945
36.233,34.936
36.18,34.927
36.129,34.921
36.082,34.916
36.035,34.912
35.99,34.909
35.946,34.906
35.903,34.904
35.86,34.902
35.82,34.9
35.781,34.9
35.743,34.901
35.708,34.902
35.674,34.904
35.642,34.906
35.613,34.908
35.585,34.909
35.559,34.908
35.536,34.905
35.516,34.9
35.499,34.893
35.485,34.884
35.475,34.873
35.469,34.861
35.468,34.847
35.472,34.832
35.482,34.818
35.496,34.803
35.513,34.79
35.532,34.778
35.552,34.768
35.571,34.759
35.591,34.753
35.61,34.751
35.627,34.755
35.644,34.765
35.658,34.783
35.67,34.809
35.679,34.843
35.685,34.887
35.688,34.941
35.687,35.005
35.684,35.08
35.677,35.167
35.667,35.266
35.654,35.376
35.639,35.497
35.621,35.629
35.602,35.769
35.582,35.918
35.559,36.074
35.535,36.236
35.508,36.4
35.478,36.567
35.444,36.732
35.407,36.895
35.367,37.053
35.324,37.206
35.279,37.353
35.233,37.494
35.185,37.628
35.136,37.754
35.087,37.871
35.039,37.98
34.991,38.079
34.945,38.169
34.9,38.25
34.858,38.321
34.817,38.381
34.778,38.431
34.739,38.47
34.7,38.498
34.662,38.514
34.625,38.518
34.589,38.513
34.555,38.498
34.522,38.475
34.491,38.445
34.461,38.407
34.432,38.362
34.404,38.311
34.377,38.254
34.35,38.192
34.323,38.126
34.296,38.057
34.269,37.986
34.242,37.913
34.215,37.839
34.189,37.765
34.165,37.692
34.144,37.622
34.124,37.556
34.105,37.492
34.086,37.43
34.068,37.37
34.05,37.311
34.031,37.251
34.012,37.192
33.993,37.131
33.973,37.07
33.953,37.009
33.933,36.945
33.915,36.88
33.898,36.813
33.882,36.745
33.867,36.676
33.853,36.607
33.839,36.538
33.826,36.471
33.813,36.405
33.802,36.341
33.791,36.278
33.78,36.218
33.77,36.161
33.76,36.108
33.75,36.06
33.741,36.018
33.733,35.981
33.725,35.949
33.719,35.922
33.714,35.9
33.71,35.882
33.707,35.868
33.704,35.858
33.7,35.852
33.694,35.85
33.686,35.852
33.676,35.858
33.663,35.867
33.647,35.878
33.629,35.893
33.608,35.91
33.584,35.928
33.557,35.947
33.529,35.965
33.499,35.98
33.468,35.992
33.438,36
33.408,36.005
33.38,36.008
33.354,36.008
33.333,36.008
33.319,36.005
33.312,36.001
33.315,35.996
33.329,35.988
33.357,35.979
33.399,35.967
33.456,35.952
33.529,35.935
33.618,35.914
33.724,35.89
33.848,35.865
33.988,35.837
34.144,35.809
34.314,35.781
34.497,35.751
34.691,35.721
34.892,35.691
35.099,35.661
35.309,35.633
35.519,35.606
35.726,35.581
35.929,35.562
36.124,35.551
36.31,35.545
36.483,35.544
36.642,35.543
36.785,35.543
36.912,35.54
37.022,35.533
37.114,35.523
37.19,35.509
37.25,35.491
37.296,35.47
37.331,35.446
37.355,35.42
37.37,35.392
37.377,35.365
37.377,35.339
37.372,35.316
37.36,35.299
37.342,35.287
37.319,35.281
37.291,35.279
37.259,35.279
37.222,35.282
37.182,35.288
37.137,35.298
37.09,35.311
37.041,35.327
36.991,35.345
36.942,35.363
36.894,35.381
36.848,35.396
36.804,35.408
36.764,35.416
36.727,35.421
36.694,35.42
36.666,35.416
36.641,35.407
36.617,35.395
36.595,35.38
36.571,35.362
36.546,35.341
36.52,35.32
36.492,35.296
36.462,35.272
36.429,35.248
36.393,35.223
36.353,35.198
36.307,35.173
36.258,35.148
36.204,35.124
36.148,35.1
36.09,35.076
36.033,35.051
35.979,35.024
35.929,34.996
35.885,34.968
35.848,34.937
35.819,34.905
35.799,34.871
35.789,34.834
35.788,34.796
35.795,34.757
35.81,34.717
35.829,34.677
35.853,34.638
35.878,34.601
35.903,34.567
35.928,34.539
35.952,34.516
35.973,34.501
35.992,34.495
36.007,34.499
36.019,34.514
36.027,34.541
36.032,34.581
36.036,34.636
36.037,34.706
36.037,34.79
36.035,34.89
36.031,35.004
36.026,35.132
36.02,35.274
36.013,35.431
36.005,35.601
35.995,35.783
35.985,35.974
35.973,36.169
35.959,36.366
35.944,36.563
35.926,36.757
35.906,36.947
35.883,37.13
35.857,37.303
35.827,37.466
35.793,37.616
35.755,37.753
35.713,37.877
35.668,37.988
35.62,38.085
35.569,38.169
35.517,38.239
35.464,38.297
35.411,38.342
35.357,38.376
35.305,38.4
35.255,38.414
35.208,38.419
35.166,38.416
35.128,38.406
35.094,38.39
35.064,38.367
35.034,38.339
35.005,38.306
34.975,38.27
34.944,38.232
34.913,38.192
34.88,38.152
34.847,38.111
34.812,38.069
34.778,38.026
34.743,37.982
34.709,37.937
34.676,37.892
34.645,37.842
34.616,37.787
34.589,37.725
34.564,37.659
34.539,37.59
34.516,37.522
34.494,37.455
34.473,37.393
34.453,37.336
34.435,37.286
34.417,37.242
34.4,37.205
34.384,37.174
34.369,37.147
34.356,37.124
34.344,37.103
34.334,37.083
34.325,37.062
34.318,37.039
34.311,37.015
34.305,36.991
34.298,36.968
34.291,36.946
34.282,36.923
34.273,36.901
34.262,36.88
34.249,36.86
34.235,36.841
34.217,36.824
34.197,36.809
34.175,36.796
34.15,36.787
34.123,36.781
34.093,36.78
34.062,36.783
34.028,36.788
33.992,36.795
33.954,36.802
33.914,36.809
33.875,36.814
33.835,36.818
33.796,36.82
33.758,36.82
33.722,36.816
33.688,36.807
33.658,36.793
33.632,36.775
33.611,36.753
33.596,36.73
33.587,36.705
33.587,36.678
33.597,36.65
33.617,36.621
33.65,36.589
33.694,36.555
33.751,36.519
33.822,36.48
33.907,36.438
34.007,36.394
34.12,36.347
34.247,36.298
34.386,36.247
34.537,36.196
34.699,36.144
34.87,36.093
35.049,36.042
35.235,35.993
35.423,35.945
35.608,35.898
35.787,35.852
35.958,35.808
36.122,35.766
36.279,35.727
36.43,35.69
36.575,35.655
36.716,35.62
36.853,35.584
36.983,35.546
37.108,35.508
37.225,35.468
37.335,35.428
37.436,35.39
37.527,35.353
37.607,35.319
37.674,35.287
37.728,35.258
37.768,35.23
37.795,35.203
37.81,35.177
37.812,35.152
37.802,35.126
37.782,35.101
37.753,35.075
37.717,35.047
37.676,35.019
37.633,34.99
37.588,34.96
37.543,34.93
37.499,34.899
37.457,34.87
37.419,34.842
37.383,34.816
37.351,34.791
37.321,34.768
37.292,34.748
37.264,34.73
37.236,34.715
37.205,34.702
37.172,34.691
37.136,34.681
37.096,34.671
37.053,34.662
37.007,34.655
36.958,34.65
36.907,34.646
36.855,34.644
36.805,34.642
36.757,34.638
36.711,34.63
36.667,34.615
36.625,34.592
36.585,34.564
36.547,34.532
36.51,34.499
36.476,34.467
36.443,34.437
36.412,34.41
36.384,34.385
36.357,34.364
36.332,34.347
36.309,34.332
36.286,34.321
36.265,34.311
36.245,34.303
36.229,34.297
36.215,34.29
36.206,34.283
36.201,34.278
36.199,34.273
36.2,34.269
36.204,34.267
36.209,34.267
36.217,34.269
36.225,34.273
36.235,34.28
36.244,34.292
36.253,34.311
36.262,34.339
36.27,34.378
36.276,34.429
36.28,34.495
36.282,34.575
36.279,34.67
36.272,34.779
36.259,34.903
36.241,35.041
36.218,35.191
36.189,35.352
36.156,35.523
36.119,35.7
36.078,35.883
36.034,36.067
35.986,36.252
35.937,36.435
35.886,36.613
35.835,36.783
35.786,36.945
35.739,37.096
35.695,37.236
35.652,37.363
35.612,37.478
35.574,37.581
35.539,37.671
35.505,37.749
35.473,37.815
35.441,37.868
35.409,37.909
35.377,37.937
35.344,37.955
35.31,37.962
35.275,37.961
35.239,37.953
35.201,37.939
35.161,37.92
35.118,37.896
35.073,37.868
35.025,37.838
34.975,37.806
34.925,37.773
34.875,37.738
34.826,37.701
34.781,37.661
34.738,37.618
34.699,37.571
34.662,37.522
34.63,37.472
34.601,37.419
34.577,37.366
34.558,37.313
34.544,37.258
34.533,37.202
34.523,37.144
34.514,37.086
34.504,37.027
34.494,36.969
34.482,36.911
34.469,36.854
34.454,36.798
34.438,36.743
34.42,36.689
34.4,36.638
34.378,36.59
34.355,36.545
34.33,36.505
34.305,36.47
34.278,36.44
34.25,36.414
34.221,36.394
34.191,36.379
34.159,36.37
34.127,36.368
34.095,36.372
34.064,36.383
34.033,36.399
34.003,36.419
33.973,36.44
33.944,36.462
33.914,36.485
33.886,36.508
33.86,36.532
33.837,36.555
33.819,36.578
33.806,36.598
33.798,36.615
33.796,36.629
33.801,36.641
33.812,36.651
33.833,36.658
33.863,36.664
33.904,36.668
33.959,36.669
34.028,36.666
34.112,36.659
34.212,36.649
34.329,36.634
34.461,36.617
34.608,36.596
34.77,36.574
34.945,36.551
35.129,36.528
35.322,36.503
35.519,36.478
35.72,36.451
35.92,36.422
36.119,36.392
36.313,36.358
36.502,36.322
36.683,36.283
36.854,36.241
37.013,36.197
37.16,36.15
37.292,36.102
37.41,36.052
37.512,36
37.598,35.947
37.669,35.892
37.725,35.836
37.765,35.78
37.792,35.723
37.805,35.666
37.807,35.609
37.799,35.552
37.783,35.496
37.76,35.44
37.732,35.386
37.701,35.332
37.666,35.282
37.629,35.235
37.591,35.193
37.553,35.154
37.515,35.119
37.478,35.085
37.442,35.052
37.408,35.018
37.375,34.984
37.344,34.951
37.313,34.919
37.282,34.889
37.25,34.863
37.215,34.837
37.179,34.812
37.139,34.786
37.097,34.76
37.051,34.734
37.003,34.709
36.952,34.685
36.898,34.664
36.844,34.645
36.795,34.628
36.753,34.614
36.718,34.601
36.689,34.588
36.662,34.575
36.637,34.561
36.61,34.546
36.579,34.53
36.544,34.513
36.504,34.495
36.46,34.478
36.412,34.461
36.361,34.445
36.308,34.431
36.255,34.419
36.203,34.407
36.153,34.396
36.106,34.387
36.063,34.379
36.027,34.373
35.996,34.368
35.972,34.364
35.953,34.361
35.938,34.357
35.928,34.354
35.92,34.349
35.917,34.343
35.915,34.335
35.917,34.326
35.92,34.316
35.926,34.304
35.933,34.289
35.94,34.272
35.949,34.253
35.957,34.232
35.965,34.21
35.973,34.187
35.978,34.165
35.98,34.143
35.979,34.122
35.973,34.102
35.963,34.085
35.948,34.07
35.928,34.06
35.903,34.055
35.873,34.057
35.837,34.068
35.798,34.088
35.754,34.121
35.707,34.165
35.657,34.225
35.607,34.301
35.556,34.394
35.505,34.504
35.454,34.631
35.405,34.773
35.356,34.93
35.309,35.099
35.264,35.279
35.221,35.466
35.179,35.658
35.139,35.854
35.1,36.051
35.061,36.248
35.022,36.442
34.984,36.632
34.946,36.815
34.91,36.988
34.874,37.151
34.84,37.304
34.807,37.447
34.774,37.581
34.743,37.704
34.712,37.818
34.681,37.921
34.651,38.013
34.621,38.094
34.591,38.163
34.56,38.22
34.529,38.266
34.498,38.301
34.466,38.324
34.435,38.337
34.404,38.339
34.374,38.332
34.346,38.316
34.318,38.293
34.29,38.262
34.263,38.226
34.237,38.183
34.212,38.135
34.189,38.082
34.167,38.025
34.147,37.965
34.128,37.903
34.109,37.84
34.091,37.777
34.074,37.714
34.058,37.651
34.045,37.588
34.033,37.524
34.023,37.46
34.014,37.396
34.006,37.331
33.998,37.267
33.989,37.202
33.98,37.136
33.97,37.069
33.958,37.001
33.944,36.934
33.928,36.869
33.91,36.806
33.89,36.747
33.868,36.691
33.845,36.64
33.82,36.593
33.793,36.551
33.766,36.515
33.738,36.486
33.708,36.463
33.679,36.445
33.65,36.433
33.622,36.424
33.596,36.419
33.572,36.417
33.549,36.416
33.527,36.416
33.504,36.419
33.48,36.422
33.457,36.425
33.438,36.427
33.429,36.427
33.431,36.426
33.447,36.423
33.474,36.418
33.513,36.412
33.564,36.404
33.625,36.395
33.698,36.384
33.783,36.371
33.881,36.356
33.992,36.339
34.115,36.319
34.252,36.299
34.401,36.277
34.563,36.254
34.736,36.23
34.92,36.205
35.111,36.178
35.308,36.148
35.508,36.116
35.71,36.081
35.91,36.044
36.107,36.005
36.298,35.963
36.481,35.92
36.655,35.874
36.817,35.826
36.963,35.778
37.093,35.73
37.205,35.684
37.299,35.639
37.377,35.596
37.438,35.555
37.483,35.514
37.514,35.474
37.531,35.433
37.537,35.394
37.534,35.358
37.522,35.325
37.504,35.296
37.481,35.269
37.453,35.244
37.42,35.218
37.385,35.191
37.346,35.163
37.305,35.134
37.262,35.104
37.218,35.073
37.172,35.042
37.127,35.011
37.08,34.979
37.032,34.945
36.984,34.912
36.934,34.879
36.885,34.847
36.836,34.817
36.788,34.789
36.74,34.764
36.692,34.741
36.645,34.719
36.599,34.698
36.552,34.68
36.505,34.663
36.458,34.649
36.409,34.637
36.359,34.627
36.308,34.62
36.257,34.617
36.205,34.616
36.153,34.617
36.102,34.621
36.051,34.627
36.002,34.632
35.955,34.636
35.91,34.638
35.867,34.637
35.827,34.633
35.791,34.627
35.758,34.62
35.731,34.612
35.709,34.605
35.692,34.597
35.68,34.59
35.671,34.583
35.666,34.578
35.664,34.574
35.666,34.572
35.67,34.571
35.677,34.573
35.686,34.575
35.697,34.577
35.708,34.579
35.72,34.579
35.73,34.577
35.741,34.574
35.75,34.568
35.756,34.56
35.761,34.549
35.763,34.534
35.764,34.516
35.761,34.494
35.757,34.469
35.749,34.442
35.738,34.413
35.723,34.384
35.705,34.354
35.682,34.325
35.655,34.297
35.624,34.269
35.59,34.241
35.554,34.215
35.517,34.191
35.48,34.17
35.445,34.153
35.412,34.14
35.381,34.132
35.351,34.13
35.323,34.136
35.296,34.152
35.27,34.177
35.242,34.216
35.213,34.267
35.18,34.333
35.145,34.412
35.106,34.505
35.063,34.61
35.016,34.727
34.966,34.855
34.912,34.996
34.855,35.147
34.795,35.309
34.734,35.479
34.673,35.654
34.612,35.834
34.553,36.016
34.496,36.198
34.443,36.379
34.393,36.556
34.346,36.728
34.302,36.891
34.26,37.044
34.222,37.186
34.188,37.316
34.161,37.433
34.139,37.537
34.121,37.63
34.106,37.711
34.093,37.781
34.08,37.839
34.066,37.885
34.05,37.92
34.034,37.944
34.016,37.957
33.996,37.961
33.973,37.955
33.949,37.941
33.923,37.922
33.896,37.899
33.868,37.874
33.84,37.847
33.811,37.818
33.783,37.788
33.755,37.755
33.728,37.718
33.703,37.677
33.681,37.63
33.661,37.58
33.644,37.525
33.628,37.467
33.614,37.407
33.602,37.347
33.592,37.287
33.584,37.227
33.579,37.167
33.576,37.106
33.576,37.044
33.577,36.982
33.581,36.921
33.585,36.861
33.589,36.802
33.591,36.745
33.591,36.688
33.589,36.632
33.584,36.577
33.577,36.525
33.568,36.477
33.557,36.433
33.543,36.394
33.527,36.36
33.51,36.33
33.491,36.304
33.471,36.281
33.449,36.263
33.427,36.249
33.402,36.239
33.375,36.235
33.347,36.235
33.318,36.24
33.287,36.248
33.256,36.26
33.223,36.274
33.191,36.291
33.159,36.309
33.127,36.329
33.096,36.348
33.066,36.368
33.038,36.388
33.013,36.407
32.99,36.424
32.971,36.439
32.955,36.452
32.944,36.463
32.94,36.47
32.945,36.475
32.961,36.477
32.989,36.475
33.031,36.47
33.09,36.461
33.165,36.45
33.257,36.435
33.366,36.416
33.491,36.395
33.633,36.37
33.79,36.342
33.963,36.311
34.15,36.279
34.348,36.246
34.554,36.214
34.765,36.181
34.976,36.148
35.186,36.114
35.392,36.078
35.591,36.041
35.782,36.002
35.961,35.964
36.128,35.927
36.282,35.891
36.423,35.857
36.55,35.823
36.664,35.789
36.764,35.753
36.851,35.717
36.926,35.681
36.987,35.647
37.035,35.615
37.071,35.586
37.096,35.562
37.111,35.541
37.116,35.525
37.114,35.512
37.105,35.502
37.088,35.493
37.065,35.484
37.037,35.474
37.003,35.462
36.964,35.447
36.921,35.43
36.874,35.411
36.823,35.39
36.769,35.368
36.712,35.346
36.654,35.323
36.594,35.299
36.535,35.275
36.477,35.249
36.42,35.22
36.364,35.189
36.308,35.156
36.253,35.12
36.199,35.082
36.144,35.041
36.091,35
36.038,34.957
35.986,34.913
35.934,34.868
35.881,34.823
35.828,34.778
35.774,34.735
35.721,34.695
35.668,34.656
35.616,34.619
35.566,34.583
35.518,34.548
35.475,34.513
35.436,34.478
35.403,34.443
35.376,34.407
35.355,34.371
35.34,34.336
35.332,34.3
35.328,34.265
35.33,34.23
35.337,34.197
35.348,34.164
35.363,34.133
35.383,34.104
35.407,34.074
35.434,34.045
35.463,34.016
35.494,33.986
35.525,33.957
35.556,33.928
35.588,33.9
35.619,33.873
35.649,33.844
35.678,33.812
35.703,33.778
35.724,33.741
35.74,33.702
35.752,33.66
35.757,33.614
35.758,33.563
35.754,33.51
35.745,33.456
35.732,33.402
35.715,33.351
35.695,33.305
35.672,33.265
35.647,33.234
35.62,33.213
35.591,33.201
35.559,33.2
35.524,33.209
35.487,33.226
35.448,33.254
35.406,33.292
35.363,33.34
35.32,33.402
35.277,33.476
35.234,33.564
35.192,33.665
35.151,33.779
35.109,33.905
35.068,34.045
35.027,34.199
34.986,34.364
34.944,34.542
34.901,34.732
34.858,34.93
34.813,35.134
34.768,35.342
34.724,35.548
34.682,35.752
34.643,35.948
34.606,36.137
34.572,36.316
34.541,36.484
34.51,36.64
34.481,36.782
34.452,36.912
34.424,37.028
34.396,37.131
34.369,37.221
34.342,37.298
34.315,37.364
34.288,37.419
34.261,37.462
34.235,37.495
34.21,37.518
34.186,37.532
34.164,37.537
34.143,37.532
34.125,37.518
34.112,37.496
34.103,37.467
34.096,37.431
34.093,37.39
34.091,37.346
34.088,37.299
34.084,37.249
34.077,37.196
34.066,37.141
34.052,37.084
34.034,37.025
34.015,36.966
33.997,36.906
33.98,36.846
33.963,36.786
33.947,36.727
33.931,36.669
33.915,36.61
33.899,36.552
33.883,36.496
33.867,36.442
33.851,36.392
33.834,36.343
33.816,36.295
33.797,36.248
33.778,36.201
33.757,36.155
33.736,36.11
33.714,36.069
33.692,36.033
33.671,36.003
33.649,35.981
33.627,35.965
33.605,35.956
33.583,35.953
33.562,35.957
33.541,35.966
33.521,35.979
33.502,35.997
33.484,36.017
33.465,36.039
33.446,36.062
33.426,36.085
33.409,36.108
33.396,36.131
33.39,36.153
33.392,36.175
33.405,36.195
33.43,36.214
33.468,36.229
33.523,36.242
33.594,36.252
33.682,36.261
33.788,36.267
33.911,36.273
34.052,36.277
34.209,36.279
34.379,36.277
34.562,36.27
34.754,36.258
34.952,36.239
35.153,36.215
35.354,36.186
35.554,36.153
35.748,36.117
35.936,36.078
36.114,36.036
36.282,35.992
36.439,35.947
36.584,35.901
36.716,35.855
36.834,35.808
36.936,35.761
37.021,35.713
37.09,35.663
37.143,35.611
37.182,35.558
37.208,35.504
37.222,35.449
37.225,35.393
37.218,35.337
37.204,35.28
37.184,35.222
37.16,35.164
37.132,35.106
37.103,35.049
37.072,34.992
37.041,34.938
37.009,34.886
36.976,34.835
36.941,34.787
36.906,34.741
36.872,34.698
36.837,34.658
36.803,34.622
36.766,34.59
36.728,34.561
36.686,34.536
36.642,34.512
36.595,34.488
36.548,34.464
36.499,34.439
36.45,34.413
36.399,34.388
36.348,34.363
36.294,34.338
36.24,34.312
36.185,34.285
36.129,34.257
36.074,34.228
36.02,34.199
35.967,34.171
35.917,34.145
35.87,34.121
35.828,34.1
35.79,34.082
35.756,34.065
35.726,34.051
35.698,34.038
35.674,34.027
35.653,34.017
35.635,34.009
35.621,34.001
35.61,33.993
35.604,33.984
35.602,33.974
35.604,33.963
35.609,33.953
35.616,33.942
35.626,33.931
35.638,33.919
35.653,33.908
35.671,33.895
35.692,33.881
35.714,33.867
35.736,33.852
35.758,33.837
35.78,33.822
35.799,33.807
35.817,33.79
35.831,33.773
35.841,33.755
35.846,33.735
35.846,33.716
35.84,33.697
35.829,33.679
35.812,33.662
35.791,33.646
35.764,33.63
35.733,33.613
35.698,33.595
35.66,33.576
35.618,33.557
35.573,33.539
35.526,33.522
35.479,33.508
35.432,33.494
35.386,33.483
35.34,33.473
35.294,33.466
35.249,33.463
35.204,33.466
35.16,33.477
35.118,33.496
35.077,33.527
35.038,33.571
35.001,33.63
34.964,33.704
34.928,33.795
34.892,33.901
34.857,34.023
34.822,34.159
34.787,34.307
34.75,34.466
34.714,34.634
34.676,34.808
34.64,34.986
34.606,35.166
34.573,35.345
34.542,35.522
34.512,35.693
34.483,35.858
34.454,36.013
34.425,36.157
34.395,36.289
34.365,36.409
34.334,36.515
34.304,36.607
34.274,36.686
34.245,36.752
34.218,36.805
34.192,36.846
34.167,36.876
34.143,36.897
34.119,36.908
34.095,36.912
34.072,36.909
34.048,36.899
34.025,36.88
34.003,36.854
33.98,36.82
33.958,36.778
33.937,36.729
33.919,36.676
33.903,36.619
33.89,36.561
33.879,36.499
33.871,36.435
33.863,36.369
33.857,36.302
33.851,36.235
33.846,36.168
33.84,36.101
33.835,36.034
33.828,35.968
33.819,35.902
33.809,35.837
33.798,35.773
33.785,35.709
33.771,35.645
33.757,35.582
33.741,35.52
33.724,35.458
33.705,35.398
33.685,35.338
33.664,35.281
33.641,35.226
33.616,35.175
33.591,35.127
33.563,35.083
33.533,35.042
33.5,35.004
33.466,34.97
33.433,34.94
33.403,34.915
33.377,34.895
33.356,34.882
33.342,34.875
33.332,34.873
33.329,34.876
33.33,34.885
33.337,34.898
33.351,34.915
33.372,34.936
33.402,34.959
33.443,34.985
33.496,35.012
33.561,35.041
33.639,35.07
33.731,35.099
33.837,35.127
33.957,35.154
34.091,35.179
34.238,35.202
34.398,35.222
34.567,35.238
34.745,35.249
34.929,35.256
35.117,35.259
35.306,35.257
35.495,35.252
35.682,35.245
35.863,35.235
36.038,35.223
36.205,35.207
36.361,35.189
36.507,35.168
36.642,35.145
36.763,35.122
36.872,35.101
36.968,35.081
37.051,35.062
37.12,35.044
37.177,35.024
37.222,35.002
37.255,34.977
37.277,34.95
37.288,34.922
37.289,34.892
37.282,34.861
37.266,34.825
37.243,34.786
37.215,34.743
37.182,34.695
37.147,34.645
37.109,34.594
37.07,34.542
37.031,34.491
36.992,34.44
36.954,34.39
36.917,34.34
36.882,34.291
36.848,34.244
36.815,34.198
36.782,34.155
36.749,34.113
36.715,34.074
36.679,34.038
36.641,34.004
36.601,33.973
36.56,33.946
36.516,33.924
36.471,33.904
36.423,33.889
36.372,33.876
36.32,33.865
36.266,33.853
36.211,33.84
36.156,33.825
36.102,33.808
36.048,33.789
35.996,33.768
35.945,33.745
35.898,33.721
35.854,33.695
35.815,33.67
35.782,33.645
35.755,33.622
35.733,33.599
35.717,33.579
35.707,33.559
35.701,33.541
35.7,33.525
35.702,33.51
35.707,33.498
35.714,33.487
35.722,33.478
35.729,33.471
35.736,33.464
35.742,33.459
35.747,33.452
35.75,33.445
35.754,33.436
35.758,33.427
35.761,33.416
35.763,33.404
35.764,33.391
35.763,33.378
35.762,33.363
35.759,33.346
35.754,33.327
35.748,33.306
35.74,33.283
35.729,33.258
35.717,33.232
35.703,33.204
35.688,33.175
35.672,33.143
35.653,33.109
35.633,33.073
35.61,33.037
35.583,33
35.554,32.963
35.521,32.927
35.484,32.893
35.444,32.86
35.401,32.829
35.356,32.8
35.309,32.773
35.261,32.749
35.211,32.729
35.161,32.714
35.111,32.705
35.061,32.703
35.012,32.708
34.965,32.722
34.918,32.747
34.873,32.783
34.828,32.833
34.784,32.898
34.743,32.978
34.705,33.074
34.67,33.186
34.637,33.313
34.608,33.456
34.581,33.612
34.556,33.781
34.533,33.958
34.512,34.143
34.491,34.333
34.471,34.526
34.452,34.72
34.432,34.912
34.413,35.101
34.395,35.284
34.377,35.46
34.36,35.628
34.344,35.786
34.328,35.932
34.311,36.065
34.292,36.184
34.271,36.288
34.247,36.377
34.22,36.452
34.19,36.514
34.158,36.563
34.125,36.6
34.091,36.627
34.056,36.643
34.019,36.65
33.982,36.65
33.945,36.643
33.909,36.63
33.876,36.612
33.848,36.591
33.825,36.568
33.806,36.543
33.792,36.514
33.781,36.482
33.775,36.447
33.772,36.408
33.772,36.367
33.773,36.325
33.775,36.279
33.776,36.231
33.776,36.179
33.775,36.122
33.772,36.062
33.767,35.999
33.761,35.933
33.752,35.864
33.741,35.794
33.729,35.723
33.713,35.649
33.696,35.574
33.677,35.5
33.655,35.427
33.63,35.356
33.602,35.29
33.571,35.227
33.538,35.168
33.503,35.115
33.467,35.066
33.429,35.023
33.392,34.988
33.356,34.961
33.322,34.943
33.29,34.933
33.258,34.932
33.226,34.939
33.195,34.952
33.165,34.97
33.139,34.993
33.119,35.02
33.108,35.049
33.108,35.081
33.121,35.113
33.147,35.146
33.189,35.179
33.247,35.212
33.322,35.244
33.412,35.275
33.519,35.305
33.64,35.334
33.775,35.359
33.92,35.382
34.075,35.402
34.238,35.419
34.408,35.432
34.582,35.443
34.76,35.449
34.938,35.452
35.116,35.451
35.292,35.447
35.462,35.44
35.626,35.43
35.781,35.416
35.926,35.401
36.061,35.385
36.183,35.368
36.291,35.349
36.387,35.328
36.469,35.305
36.538,35.278
36.595,35.248
36.64,35.215
36.676,35.179
36.703,35.142
36.721,35.103
36.731,35.064
36.732,35.024
36.726,34.983
36.712,34.941
36.693,34.898
36.669,34.856
36.64,34.813
36.607,34.771
36.571,34.729
36.531,34.687
36.489,34.645
36.445,34.604
36.399,34.564
36.352,34.524
36.304,34.487
36.255,34.452
36.207,34.419
36.159,34.388
36.111,34.358
36.064,34.331
36.017,34.306
35.972,34.285
35.927,34.266
35.881,34.251
35.835,34.239
35.788,34.23
35.741,34.222
35.695,34.214
35.649,34.208
35.605,34.203
35.562,34.199
35.521,34.198
35.48,34.199
35.44,34.201
35.402,34.204
35.365,34.207
35.329,34.21
35.294,34.213
35.262,34.216
35.231,34.219
35.203,34.22
35.177,34.22
35.155,34.219
35.136,34.217
35.123,34.215
35.115,34.212
35.113,34.207
35.115,34.201
35.122,34.193
35.134,34.182
35.149,34.169
35.167,34.154
35.187,34.139
35.209,34.123
35.232,34.107
35.254,34.091
35.276,34.074
35.295,34.058
35.311,34.041
35.325,34.024
35.337,34.008
35.346,33.996
35.352,33.989
35.355,33.989
35.355,33.997
35.35,34.015
35.342,34.043
35.329,34.082
35.313,34.131
35.292,34.193
35.268,34.265
35.24,34.349
35.209,34.444
35.176,34.55
35.14,34.667
35.104,34.793
35.068,34.928
35.032,35.071
34.996,35.222
34.96,35.378
34.923,35.538
34.886,35.702
34.851,35.868
34.817,36.033
34.786,36.197
34.759,36.359
34.734,36.516
34.711,36.668
34.687,36.815
34.664,36.957
34.639,37.091
34.614,37.216
34.587,37.33
34.558,37.431
34.527,37.519
34.493,37.593
34.456,37.653
34.417,37.7
34.376,37.733
34.335,37.754
34.295,37.764
34.256,37.762
34.22,37.751
34.187,37.731
34.156,37.705
34.129,37.672
34.103,37.633
34.08,37.588
34.058,37.538
34.036,37.485
34.015,37.429
33.993,37.37
33.972,37.309
33.95,37.245
33.928,37.178
33.907,37.107
33.888,37.031
33.87,36.952
33.855,36.869
33.842,36.781
33.83,36.689
33.818,36.595
33.806,36.499
33.793,36.402
33.78,36.305
33.767,36.21
33.754,36.118
33.742,36.031
33.731,35.951
33.721,35.879
33.712,35.817
33.704,35.765
33.697,35.724
33.69,35.693
33.684,35.672
33.679,35.66
33.672,35.659
33.665,35.669
33.657,35.689
33.648,35.718
33.636,35.754
33.623,35.794
33.609,35.834
33.592,35.873
33.575,35.912
33.556,35.948
33.536,35.983
33.517,36.016
33.497,36.046
33.478,36.072
33.46,36.095
33.442,36.114
33.423,36.129
33.404,36.143
33.384,36.154
33.364,36.165
33.345,36.174
33.327,36.181
33.309,36.187
33.292,36.191
33.276,36.193
33.261,36.194
33.247,36.194
33.233,36.193
33.22,36.191
33.208,36.188
33.198,36.183
33.19,36.176
33.186,36.167
33.186,36.155
33.193,36.139
33.207,36.117
33.231,36.091
33.265,36.059
33.312,36.023
33.371,35.981
33.444,35.936
33.53,35.889
33.63,35.84
33.742,35.79
33.867,35.739
34.004,35.688
34.15,35.637
34.305,35.587
34.466,35.537
34.632,35.488
34.799,35.44
34.967,35.393
35.133,35.346
35.294,35.3
35.449,35.254
35.595,35.209
35.73,35.163
35.851,35.118
35.96,35.075
36.054,35.035
36.134,34.997
36.201,34.964
36.256,34.934
36.299,34.907
36.332,34.881
36.356,34.856
36.371,34.833
36.38,34.811
36.382,34.789
36.379,34.769
36.372,34.75
36.359,34.731
36.342,34.711
36.319,34.691
36.29,34.67
36.257,34.648
36.219,34.627
36.177,34.606
36.131,34.586
36.083,34.567
36.032,34.548
35.98,34.529
35.928,34.512
35.875,34.496
35.824,34.483
35.774,34.47
35.727,34.457
35.681,34.441
35.637,34.423
35.594,34.402
35.553,34.378
35.512,34.351
35.471,34.324
35.431,34.298
35.39,34.273
35.348,34.249
35.306,34.226
35.264,34.205
35.22,34.184
35.177,34.163
35.133,34.143
35.091,34.121
35.05,34.099
35.012,34.078
34.978,34.058
34.948,34.04
34.922,34.025
34.902,34.013
34.887,34.005
34.878,34.004
34.878,34.008
34.885,34.02
34.899,34.041
34.92,34.073
34.946,34.118
34.976,34.177
35.009,34.251
35.043,34.342
35.078,34.449
35.111,34.573
35.143,34.711
35.173,34.863
35.202,35.03
35.228,35.21
35.25,35.402
35.268,35.604
35.281,35.813
35.289,36.026
35.292,36.24
35.291,36.452
35.284,36.658
35.274,36.854
35.259,37.04
35.241,37.214
35.22,37.376
35.196,37.525
35.169,37.66
35.141,37.78
35.112,37.886
35.082,37.979
35.051,38.059
35.021,38.128
34.991,38.186
34.962,38.235
34.933,38.275
34.904,38.305
34.873,38.327
34.841,38.34
34.808,38.345
34.774,38.342
34.739,38.333
34.703,38.317
34.667,38.295
34.63,38.268
34.593,38.235
34.556,38.199
34.52,38.16
34.484,38.119
34.449,38.077
34.416,38.034
34.385,37.991
34.356,37.947
34.33,37.902
34.307,37.857
34.286,37.81
34.266,37.764
34.248,37.717
34.229,37.671
34.209,37.624
34.189,37.578
34.167,37.532
34.143,37.486
34.118,37.441
34.092,37.396
34.065,37.354
34.038,37.314
34.013,37.277
33.989,37.243
33.967,37.212
33.947,37.184
33.93,37.158
33.916,37.135
33.906,37.114
33.898,37.096
33.891,37.079
33.885,37.064
33.878,37.05
33.873,37.039
33.867,37.029
33.862,37.022
33.858,37.016
33.855,37.013
33.851,37.012
33.849,37.012
33.847,37.013
33.846,37.014
33.845,37.015
33.844,37.016
33.843,37.016
33.84,37.017
33.837,37.016
33.832,37.015
33.827,37.012
33.82,37.006
33.813,36.998
33.803,36.987
33.793,36.974
33.781,36.959
33.768,36.942
33.754,36.923
33.738,36.901
33.722,36.877
33.704,36.85
33.686,36.821
33.667,36.789
33.648,36.755
33.628,36.719
33.607,36.68
33.585,36.639
33.562,36.596
33.539,36.55
33.518,36.502
33.498,36.452
33.482,36.403
33.467,36.354
33.455,36.306
33.445,36.257
33.437,36.209
33.432,36.159
33.432,36.109
33.436,36.059
33.446,36.009
33.463,35.959
33.485,35.91
33.515,35.861
33.554,35.812
33.603,35.764
33.663,35.715
33.737,35.668
33.825,35.621
33.927,35.574
34.044,35.528
34.173,35.483
34.315,35.438
34.466,35.394
34.624,35.352
34.789,35.311
34.956,35.271
35.124,35.233
35.29,35.197
35.452,35.161
35.609,35.127
35.759,35.094
35.902,35.063
36.037,35.033
36.163,35.004
36.279,34.977
36.384,34.951
36.476,34.926
36.556,34.902
36.625,34.878
36.684,34.855
36.732,34.834
36.771,34.814
36.8,34.796
36.82,34.78
36.832,34.764
36.835,34.748
36.832,34.731
36.821,34.713
36.804,34.692
36.782,34.669
36.754,34.643
36.723,34.617
36.688,34.589
36.65,34.56
36.612,34.53
36.574,34.499
36.537,34.467
36.503,34.433
36.469,34.398
36.435,34.364
36.402,34.331
36.369,34.3
36.337,34.27
36.307,34.24
36.278,34.212
36.251,34.183
36.224,34.156
36.197,34.133
36.17,34.115
36.142,34.105
36.112,34.1
36.081,34.103
36.047,34.111
36.011,34.127
35.973,34.15
35.932,34.183
35.89,34.227
35.847,34.285
35.804,34.357
35.761,34.443
35.721,34.542
35.683,34.656
35.65,34.782
35.621,34.921
35.597,35.072
35.579,35.232
35.568,35.402
35.563,35.579
35.564,35.76
35.571,35.946
35.58,36.133
35.59,36.32
35.602,36.504
35.614,36.685
35.626,36.859
35.641,37.026
35.656,37.183
35.672,37.328
35.688,37.461
35.701,37.58
35.711,37.685
35.717,37.775
35.72,37.851
35.72,37.912
35.717,37.96
35.71,37.995
35.7,38.017
35.687,38.028
35.672,38.029
35.656,38.021
35.638,38.006
35.621,37.984
35.604,37.956
35.587,37.923
35.569,37.885
35.551,37.844
35.534,37.8
35.515,37.756
35.496,37.713
35.478,37.67
35.46,37.626
35.442,37.581
35.425,37.534
35.407,37.485
35.388,37.435
35.369,37.385
35.349,37.335
35.326,37.285
35.299,37.236
35.267,37.186
35.231,37.135
35.189,37.083
35.143,37.031
35.092,36.977
35.039,36.924
34.985,36.87
34.929,36.817
34.874,36.765
34.82,36.714
34.768,36.666
34.718,36.62
34.671,36.577
34.628,36.536
34.59,36.498
34.556,36.464
34.527,36.433
34.501,36.406
34.479,36.383
34.46,36.365
34.444,36.351
34.43,36.342
34.419,36.336
34.409,36.333
34.401,36.331
34.393,36.33
34.384,36.328
34.375,36.327
34.365,36.325
34.354,36.325
34.34,36.325
34.325,36.325
34.308,36.327
34.288,36.328
34.267,36.33
34.243,36.33
34.219,36.329
34.195,36.327
34.173,36.324
34.153,36.318
34.134,36.308
34.118,36.293
34.105,36.274
34.094,36.25
34.086,36.222
34.08,36.191
34.078,36.157
34.077,36.121
34.079,36.083
34.081,36.044
34.084,36.003
34.087,35.96
34.089,35.915
34.091,35.869
34.093,35.823
34.093,35.777
34.093,35.731
34.092,35.685
34.089,35.638
34.085,35.59
34.079,35.543
34.071,35.497
34.061,35.452
34.049,35.409
34.035,35.368
34.018,35.327
33.999,35.286
33.977,35.245
33.952,35.204
33.925,35.164
33.896,35.125
33.865,35.089
33.833,35.056
33.799,35.026
33.764,34.997
33.729,34.969
33.695,34.941
33.663,34.915
33.634,34.889
33.608,34.864
33.585,34.839
33.567,34.814
33.551,34.789
33.539,34.764
33.53,34.737
33.527,34.71
33.528,34.683
33.537,34.656
33.553,34.63
33.579,34.604
33.614,34.58
33.661,34.556
33.721,34.534
33.795,34.512
33.884,34.492
33.989,34.473
34.109,34.457
34.241,34.442
34.385,34.429
34.538,34.417
34.698,34.405
34.863,34.394
35.03,34.384
35.197,34.373
35.36,34.363
35.519,34.351
35.671,34.339
35.815,34.327
35.949,34.314
36.072,34.299
36.184,34.285
36.285,34.27
36.374,34.255
36.451,34.239
36.517,34.222
36.572,34.203
36.617,34.183
36.652,34.16
36.68,34.135
36.701,34.108
36.716,34.079
36.726,34.05
36.732,34.021
36.735,33.99
36.738,33.959
36.738,33.928
36.738,33.897
36.735,33.866
36.728,33.837
36.718,33.811
36.704,33.788
36.686,33.769
36.663,33.754
36.637,33.742
36.606,33.732
36.574,33.726
36.54,33.725
36.505,33.731
36.469,33.746
36.432,33.773
36.396,33.812
36.36,33.864
36.326,33.93
36.293,34.011
36.262,34.107
36.233,34.219
36.205,34.347
36.177,34.49
36.148,34.646
36.118,34.813
36.086,34.989
36.051,35.173
36.013,35.36
35.971,35.55
35.926,35.738
35.879,35.923
35.832,36.102
35.785,36.272
35.74,36.432
35.697,36.58
35.658,36.715
35.622,36.837
35.59,36.944
35.564,37.038
35.543,37.117
35.527,37.182
35.517,37.234
35.512,37.273
35.511,37.3
35.515,37.317
35.522,37.326
35.532,37.328
35.544,37.323
35.558,37.311
35.574,37.291
35.59,37.264
35.605,37.231
35.619,37.192
35.629,37.147
35.637,37.099
35.641,37.048
35.641,36.994
35.638,36.937
35.631,36.88
35.621,36.822
35.607,36.765
35.592,36.71
35.574,36.656
35.556,36.603
35.537,36.552
35.518,36.499
35.499,36.446
35.481,36.392
35.464,36.338
35.448,36.283
35.432,36.23
35.416,36.178
35.402,36.126
35.388,36.074
35.373,36.021
35.357,35.968
35.339,35.914
35.318,35.86
35.294,35.807
35.267,35.755
35.238,35.706
35.206,35.66
35.173,35.617
35.137,35.58
35.099,35.549
35.059,35.523
35.016,35.504
34.974,35.491
34.93,35.482
34.888,35.478
34.845,35.477
34.805,35.478
34.766,35.48
34.729,35.483
34.696,35.488
34.668,35.492
34.644,35.497
34.625,35.501
34.611,35.504
34.6,35.506
34.592,35.505
34.587,35.502
34.582,35.497
34.578,35.489
34.574,35.479
34.567,35.467
34.558,35.452
34.545,35.435
34.529,35.414
34.509,35.392
34.487,35.368
34.462,35.342
34.437,35.317
34.411,35.291
34.386,35.263
34.361,35.233
34.336,35.2
34.306,35.164
34.27,35.125
34.229,35.085
34.185,35.045
34.142,35.005
34.102,34.965
34.067,34.924
34.039,34.883
34.018,34.839
34.005,34.794
34,34.747
34.004,34.701
34.014,34.654
34.031,34.609
34.051,34.569
34.074,34.538
34.099,34.515
34.123,34.501
34.145,34.492
34.165,34.487
34.182,34.482
34.195,34.475
34.204,34.462
34.209,34.442
34.209,34.413
34.204,34.377
34.195,34.333
34.182,34.284
34.165,34.231
34.145,34.176
34.123,34.122
34.099,34.072
34.074,34.027
34.047,33.988
34.019,33.957
33.992,33.932
33.965,33.914
33.94,33.902
33.915,33.894
33.891,33.89
33.868,33.887
33.846,33.887
33.824,33.888
33.804,33.89
33.784,33.893
33.765,33.896
33.747,33.898
33.728,33.9
33.709,33.901
33.69,33.902
33.671,33.902
33.652,33.901
33.635,33.9
33.621,33.898
33.61,33.896
33.602,33.892
33.599,33.887
33.601,33.88
33.609,33.873
33.624,33.865
33.648,33.858
33.68,33.851
33.721,33.845
33.772,33.839
33.834,33.835
33.908,33.831
33.994,33.828
34.094,33.826
34.207,33.824
34.333,33.821
34.469,33.817
34.615,33.812
34.768,33.807
34.924,33.801
35.081,33.794
35.238,33.788
35.392,33.78
35.541,33.772
35.683,33.762
35.816,33.751
35.94,33.737
36.053,33.72
36.155,33.702
36.248,33.681
36.331,33.658
36.405,33.634
36.471,33.608
36.527,33.582
36.573,33.556
36.611,33.53
36.641,33.506
36.662,33.483
36.676,33.463
36.683,33.445
36.684,33.43
36.677,33.418
36.665,33.409
36.647,33.404
36.624,33.404
36.595,33.41
36.562,33.424
36.527,33.446
36.488,33.476
36.448,33.518
36.406,33.569
36.364,33.633
36.322,33.708
36.282,33.795
36.246,33.894
36.212,34.004
36.181,34.125
36.153,34.255
36.131,34.393
36.116,34.538
36.106,34.69
36.097,34.845
36.089,35.002
36.079,35.159
36.064,35.316
36.042,35.47
36.013,35.622
35.976,35.769
35.931,35.911
35.879,36.045
35.822,36.169
35.761,36.283
35.698,36.385
35.633,36.478
35.568,36.56
35.505,36.633
35.444,36.695
35.389,36.747
35.34,36.787
35.298,36.815
35.266,36.832
35.244,36.839
35.231,36.839
35.227,36.831
35.232,36.816
35.247,36.795
35.268,36.77
35.296,36.74
35.328,36.708
35.362,36.673
35.396,36.637
35.429,36.6
35.459,36.561
35.487,36.522
35.511,36.482
35.532,36.441
35.548,36.399
35.559,36.357
35.565,36.314
35.566,36.27
35.562,36.224
35.554,36.175
35.542,36.125
35.527,36.073
35.51,36.019
35.489,35.963
35.467,35.907
35.443,35.851
35.419,35.795
35.395,35.739
35.372,35.685
35.352,35.634
35.336,35.585
35.322,35.541
35.31,35.503
35.299,35.471
35.29,35.445
35.281,35.426
35.271,35.412
35.262,35.403
35.251,35.398
35.239,35.397
35.224,35.399
35.207,35.406
35.188,35.417
35.166,35.43
35.143,35.445
35.118,35.461
35.091,35.476
35.063,35.491
35.034,35.505
35.005,35.517
34.979,35.528
34.954,35.537
34.931,35.544
34.909,35.549
34.887,35.552
34.864,35.553
34.84,35.551
34.815,35.548
34.789,35.543
34.763,35.537
34.736,35.528
34.709,35.518
34.682,35.506
34.657,35.492
34.632,35.476
34.608,35.458
34.588,35.438
34.57,35.416
34.554,35.391
34.542,35.362
34.531,35.329
34.52,35.291
34.51,35.249
34.5,35.204
34.489,35.157
34.479,35.109
34.47,35.059
34.462,35.01
34.455,34.961
34.45,34.912
34.444,34.864
34.437,34.818
34.431,34.774
34.425,34.732
34.418,34.693
34.411,34.656
34.404,34.621
34.396,34.586
34.386,34.551
34.375,34.517
34.363,34.482
34.351,34.448
34.34,34.413
34.329,34.379
34.32,34.346
34.312,34.314
34.306,34.286
34.3,34.26
34.296,34.238
34.292,34.218
34.292,34.201
34.295,34.185
34.301,34.169
34.31,34.154
34.321,34.138
34.331,34.121
34.341,34.103
34.349,34.086
34.354,34.068
34.355,34.05
34.351,34.033
34.342,34.015
34.328,33.998
34.309,33.981
34.285,33.966
34.259,33.955
34.231,33.948
34.203,33.945
34.173,33.944
34.143,33.945
34.111,33.946
34.078,33.946
34.044,33.945
34.01,33.943
33.977,33.94
33.944,33.936
33.913,33.93
33.884,33.924
33.856,33.916
33.83,33.907
33.805,33.896
33.782,33.885
33.76,33.873
33.741,33.862
33.723,33.852
33.708,33.842
33.697,33.833
33.691,33.823
33.691,33.812
33.701,33.8
33.722,33.788
33.754,33.776
33.8,33.765
33.86,33.753
33.934,33.741
34.022,33.727
34.123,33.711
34.237,33.692
34.362,33.671
34.497,33.649
34.639,33.624
34.786,33.6
34.935,33.575
35.083,33.551
35.229,33.526
35.371,33.502
35.509,33.48
35.64,33.459
35.763,33.442
35.878,33.429
35.983,33.422
36.077,33.42
36.16,33.423
36.23,33.433
36.289,33.451
36.337,33.477
36.373,33.514
36.399,33.562
36.415,33.623
36.419,33.697
36.413,33.785
36.399,33.886
36.378,34.001
36.351,34.128
36.318,34.267
36.282,34.416
36.242,34.574
36.198,34.739
36.154,34.908
36.109,35.079
36.064,35.251
36.022,35.421
35.98,35.589
35.94,35.752
35.9,35.91
35.86,36.06
35.821,36.201
35.781,36.332
35.742,36.451
35.703,36.559
35.663,36.654
35.624,36.736
35.584,36.806
35.545,36.864
35.506,36.909
35.468,36.942
35.431,36.962
35.396,36.97
35.363,36.968
35.332,36.958
35.304,36.941
35.279,36.92
35.257,36.894
35.236,36.865
35.218,36.833
35.201,36.798
35.186,36.762
35.174,36.726
35.162,36.691
35.153,36.657
35.145,36.624
35.14,36.591
35.137,36.558
35.139,36.525
35.144,36.492
35.152,36.459
35.162,36.427
35.172,36.396
35.183,36.365
35.194,36.335
35.204,36.305
35.214,36.272
35.223,36.238
35.23,36.201
35.233,36.16
35.235,36.117
35.234,36.07
35.233,36.022
35.232,35.972
35.231,35.923
35.232,35.875
35.236,35.83
35.243,35.788
35.253,35.751
35.265,35.718
35.278,35.689
35.291,35.666
35.304,35.648
35.316,35.635
35.324,35.626
35.329,35.62
35.328,35.618
35.322,35.617
35.311,35.619
35.295,35.622
35.275,35.626
35.249,35.631
35.218,35.638
35.184,35.646
35.147,35.654
35.108,35.662
35.07,35.671
35.033,35.679
34.996,35.688
34.96,35.696
34.925,35.704
34.89,35.711
34.855,35.717
34.822,35.723
34.791,35.727
34.761,35.73
34.734,35.731
34.71,35.731
34.688,35.727
34.669,35.719
34.652,35.709
34.636,35.695
34.622,35.679
34.609,35.659
34.597,35.636
34.585,35.609
34.573,35.579
34.562,35.547
34.552,35.514
34.541,35.484
34.53,35.455
34.517,35.429
34.503,35.403
34.486,35.377
34.467,35.351
34.444,35.323
34.418,35.297
34.389,35.272
34.357,35.248
34.325,35.226
34.294,35.205
34.263,35.182
34.233,35.159
34.206,35.135
34.18,35.111
34.156,35.086
34.136,35.063
34.12,35.04
34.107,35.017
34.099,34.996
34.093,34.976
34.091,34.957
34.091,34.941
34.093,34.928
34.097,34.916
34.105,34.906
34.116,34.896
34.13,34.885
34.147,34.872
34.164,34.859
34.182,34.845
34.199,34.831
34.215,34.816
34.228,34.801
34.237,34.786
34.243,34.77
34.244,34.754
34.24,34.738
34.232,34.721
34.219,34.703
34.201,34.685
34.181,34.666
34.16,34.648
34.139,34.629
34.118,34.611
34.099,34.594
34.08,34.578
34.062,34.562
34.045,34.546
34.029,34.531
34.015,34.517
34,34.503
33.985,34.49
33.969,34.477
33.953,34.464
33.936,34.45
33.92,34.435
33.904,34.418
33.889,34.401
33.875,34.382
33.861,34.363
33.848,34.341
33.834,34.319
33.822,34.295
33.811,34.27
33.802,34.245
33.798,34.22
33.798,34.196
33.805,34.173
33.818,34.152
33.839,34.131
33.868,34.112
33.907,34.094
33.956,34.078
34.016,34.062
34.089,34.047
34.173,34.031
34.27,34.013
34.379,33.993
34.499,33.971
34.63,33.946
34.769,33.92
34.915,33.893
35.068,33.866
35.224,33.839
35.381,33.812
35.539,33.785
35.694,33.757
35.846,33.73
35.993,33.705
36.134,33.683
36.268,33.667
36.392,33.656
36.508,33.653
36.612,33.657
36.706,33.67
36.788,33.692
36.86,33.724
36.921,33.769
36.972,33.828
37.013,33.903
37.043,33.994
37.063,34.099
37.075,34.218
37.078,34.349
37.073,34.49
37.062,34.64
37.044,34.797
37.02,34.96
36.989,35.126
36.953,35.293
36.913,35.459
36.869,35.623
36.822,35.784
36.774,35.941
36.724,36.093
36.675,36.239
36.627,36.379
36.58,36.51
36.537,36.631
36.498,36.741
36.464,36.839
36.435,36.926
36.411,37.001
36.39,37.065
36.372,37.117
36.355,37.158
36.338,37.188
36.32,37.208
36.3,37.219
36.276,37.221
36.25,37.217
36.219,37.208
36.184,37.195
36.146,37.177
36.105,37.157
36.062,37.133
36.02,37.107
35.981,37.079
35.945,37.048
35.912,37.015
35.883,36.981
35.857,36.945
35.835,36.908
35.816,36.868
35.8,36.827
35.786,36.784
35.775,36.741
35.768,36.697
35.763,36.653
35.762,36.609
35.764,36.565
35.769,36.521
35.778,36.477
35.79,36.432
35.804,36.387
35.819,36.343
35.833,36.3
35.846,36.259
35.857,36.221
35.867,36.185
35.877,36.15
35.885,36.118
35.891,36.086
35.894,36.057
35.894,36.03
35.891,36.004
35.885,35.981
35.877,35.959
35.867,35.938
35.855,35.918
35.843,35.901
35.83,35.886
35.817,35.875
35.801,35.866
35.784,35.861
35.765,35.858
35.746,35.857
35.726,35.857
35.706,35.858
35.686,35.861
35.666,35.867
35.646,35.874
35.625,35.883
35.604,35.893
35.583,35.902
35.561,35.909
35.538,35.914
35.513,35.917
35.486,35.916
35.457,35.914
35.426,35.908
35.393,35.901
35.36,35.891
35.326,35.877
35.293,35.859
35.259,35.837
35.224,35.811
35.189,35.782
35.155,35.75
35.12,35.715
35.086,35.677
35.052,35.638
35.019,35.596
34.987,35.553
34.957,35.51
34.928,35.467
34.902,35.424
34.879,35.381
34.858,35.336
34.84,35.291
34.824,35.245
34.809,35.198
34.796,35.152
34.782,35.108
34.77,35.066
34.757,35.026
34.745,34.987
34.732,34.949
34.719,34.911
34.703,34.873
34.686,34.835
34.667,34.797
34.648,34.761
34.63,34.727
34.614,34.693
34.598,34.661
34.581,34.629
34.563,34.598
34.542,34.568
34.52,34.539
34.496,34.512
34.471,34.486
34.445,34.462
34.419,34.44
34.393,34.419
34.369,34.398
34.348,34.379
34.33,34.361
34.316,34.344
34.305,34.327
34.297,34.311
34.292,34.294
34.29,34.278
34.289,34.26
34.289,34.243
34.291,34.224
34.293,34.206
34.294,34.187
34.295,34.168
34.296,34.148
34.294,34.129
34.289,34.111
34.28,34.093
34.267,34.076
34.251,34.06
34.233,34.045
34.213,34.031
34.193,34.018
34.171,34.006
34.146,33.994
34.12,33.983
34.092,33.973
34.063,33.962
34.034,33.95
34.006,33.938
33.98,33.926
33.958,33.913
33.937,33.9
33.918,33.887
33.899,33.873
33.881,33.859
33.862,33.844
33.841,33.828
33.819,33.81
33.795,33.793
33.771,33.775
33.747,33.758
33.725,33.739
33.706,33.72
33.691,33.701
33.681,33.681
33.677,33.66
33.682,33.639
33.696,33.618
33.72,33.597
33.755,33.576
33.803,33.555
33.864,33.534
33.939,33.512
34.028,33.489
34.131,33.465
34.248,33.441
34.376,33.414
34.514,33.387
34.661,33.359
34.814,33.33
34.972,33.301
35.133,33.273
35.293,33.245
35.45,33.219
35.602,33.195
35.747,33.174
35.883,33.156
36.009,33.142
36.126,33.134
36.232,33.131
36.327,33.136
36.411,33.149
36.484,33.17
36.548,33.202
36.602,33.245
36.646,33.301
36.683,33.369
36.713,33.45
36.735,33.544
36.751,33.65
36.76,33.768
36.764,33.898
36.763,34.038
36.757,34.187
36.749,34.344
36.737,34.508
36.721,34.676
36.703,34.846
36.683,35.016
36.659,35.184
36.633,35.347
36.605,35.503
36.576,35.651
36.545,35.789
36.514,35.917
36.48,36.034
36.445,36.14
36.408,36.234
36.37,36.314
36.332,36.381
36.293,36.432
36.255,36.47
36.217,36.497
36.18,36.515
36.143,36.526
36.107,36.53
36.072,36.527
36.037,36.518
36.003,36.504
35.969,36.484
35.936,36.46
35.902,36.432
35.869,36.4
35.835,36.365
35.802,36.326
35.769,36.285
35.738,36.24
35.707,36.193
35.679,36.145
35.652,36.095
35.628,36.044
35.606,35.993
35.586,35.941
35.569,35.89
35.555,35.839
35.543,35.788
35.534,35.739
35.528,35.691
35.523,35.645
35.52,35.6
35.52,35.555
35.521,35.511
35.524,35.468
35.529,35.426
35.535,35.384
35.542,35.343
35.549,35.304
35.558,35.265
35.567,35.228
35.578,35.193
35.589,35.159
35.601,35.126
35.612,35.096
35.622,35.066
35.63,35.039
35.635,35.015
35.637,34.993
35.637,34.974
35.633,34.956
35.625,34.941
35.614,34.927
35.597,34.915
35.573,34.903
35.544,34.894
35.511,34.886
35.474,34.88
35.437,34.877
35.399,34.875
35.362,34.875
35.325,34.877
35.289,34.88
35.253,34.885
35.219,34.89
35.186,34.896
35.155,34.901
35.126,34.904
35.099,34.904
35.073,34.9
35.048,34.894
35.022,34.885
34.996,34.873
34.97,34.86
34.943,34.844
34.916,34.825
34.888,34.803
34.858,34.778
34.827,34.751
34.795,34.722
34.761,34.692
34.727,34.662
34.694,34.632
34.662,34.603
34.631,34.574
34.602,34.546
34.572,34.52
34.543,34.496
34.515,34.475
34.487,34.456
34.46,34.439
34.433,34.424
34.408,34.408
34.383,34.39
34.359,34.37
34.336,34.348
34.314,34.325
34.293,34.3
34.273,34.273
34.255,34.246
34.238,34.219
34.22,34.194
34.204,34.17
34.187,34.148
34.17,34.13
34.154,34.116
34.14,34.104
34.128,34.093
34.119,34.082
34.112,34.069
34.106,34.053
34.102,34.033
34.099,34.01
34.097,33.984
34.093,33.956
34.089,33.925
34.084,33.892
34.077,33.856
34.068,33.819
34.058,33.78
34.046,33.74
34.034,33.7
34.023,33.661
34.012,33.623
34.002,33.587
33.992,33.554
33.984,33.523
33.975,33.495
33.967,33.47
33.958,33.448
33.949,33.429
33.939,33.414
33.927,33.403
33.914,33.394
33.899,33.389
33.882,33.387
33.865,33.388
33.846,33.392
33.828,33.4
33.809,33.41
33.79,33.423
33.771,33.438
33.752,33.453
33.733,33.466
33.713,33.477
33.692,33.485
33.672,33.489
33.652,33.49
33.633,33.487
33.616,33.482
33.6,33.473
33.584,33.461
33.57,33.445
33.556,33.426
33.545,33.406
33.536,33.383
33.53,33.36
33.527,33.338
33.527,33.316
33.532,33.296
33.544,33.276
33.563,33.256
33.593,33.236
33.634,33.215
33.687,33.193
33.754,33.17
33.835,33.148
33.928,33.124
34.034,33.099
34.153,33.073
34.283,33.047
34.422,33.021
34.569,32.996
34.72,32.973
34.874,32.954
35.029,32.938
35.182,32.925
35.332,32.915
35.477,32.906
35.615,32.9
35.745,32.897
35.865,32.896
35.973,32.9
36.071,32.906
36.158,32.916
36.234,32.929
36.301,32.946
36.359,32.967
36.409,32.994
36.452,33.026
36.486,33.066
36.514,33.113
36.535,33.168
36.55,33.231
36.561,33.303
36.569,33.384
36.574,33.475
36.577,33.577
36.577,33.69
36.575,33.814
36.57,33.946
36.562,34.085
36.55,34.229
36.535,34.376
36.515,34.526
36.492,34.677
36.466,34.827
36.437,34.975
36.406,35.119
36.374,35.257
36.342,35.387
36.309,35.507
36.277,35.617
36.244,35.717
36.211,35.807
36.176,35.887
36.14,35.957
36.103,36.016
36.065,36.065
36.028,36.104
35.992,36.134
35.957,36.156
35.922,36.17
35.888,36.178
35.856,36.18
35.825,36.177
35.796,36.168
35.77,36.154
35.745,36.136
35.723,36.114
35.704,36.088
35.688,36.06
35.674,36.028
35.663,35.993
35.654,35.955
35.646,35.915
35.641,35.873
35.639,35.83
35.64,35.787
35.645,35.743
35.652,35.699
35.663,35.655
35.679,35.61
35.698,35.565
35.72,35.52
35.746,35.474
35.772,35.43
35.8,35.386
35.829,35.343
35.859,35.301
35.892,35.261
35.928,35.221
35.966,35.184
36.004,35.15
36.042,35.12
36.078,35.095
36.112,35.076
36.141,35.062
36.164,35.052
36.182,35.047
36.192,35.043
36.194,35.041
36.189,35.039
36.176,35.038
36.156,35.038
36.129,35.041
36.096,35.048
36.056,35.058
36.011,35.072
35.962,35.087
35.909,35.105
35.853,35.124
35.796,35.147
35.739,35.173
35.682,35.201
35.627,35.231
35.575,35.261
35.526,35.289
35.479,35.308
35.434,35.316
35.392,35.314
35.351,35.306
35.312,35.295
35.274,35.284
35.238,35.274
35.202,35.267
35.168,35.264
35.133,35.266
35.1,35.273
35.066,35.286
35.031,35.303
34.996,35.323
34.96,35.345
34.924,35.366
34.888,35.385
34.853,35.401
34.818,35.411
34.785,35.416
34.752,35.415
34.72,35.407
34.69,35.393
34.662,35.372
34.636,35.347
34.613,35.316
34.592,35.282
34.574,35.245
34.56,35.205
34.549,35.163
34.541,35.12
34.535,35.076
34.532,35.031
34.53,34.985
34.529,34.939
34.529,34.895
34.532,34.851
34.537,34.809
34.543,34.769
34.55,34.73
34.556,34.694
34.562,34.659
34.567,34.625
34.569,34.594
34.569,34.564
34.567,34.535
34.562,34.507
34.554,34.48
34.544,34.453
34.532,34.427
34.517,34.402
34.501,34.376
34.483,34.35
34.464,34.324
34.444,34.298
34.424,34.273
34.403,34.249
34.383,34.225
34.365,34.202
34.349,34.18
34.334,34.158
34.321,34.136
34.307,34.114
34.293,34.093
34.277,34.072
34.259,34.051
34.238,34.032
34.216,34.013
34.192,33.996
34.168,33.98
34.144,33.966
34.12,33.954
34.097,33.942
34.074,33.931
34.052,33.92
34.032,33.91
34.012,33.9
33.994,33.89
33.976,33.881
33.957,33.872
33.936,33.863
33.915,33.854
33.892,33.844
33.871,33.833
33.853,33.82
33.84,33.806
33.832,33.791
33.831,33.776
33.838,33.759
33.855,33.742
33.882,33.723
33.919,33.702
33.968,33.68
34.029,33.657
34.102,33.633
34.186,33.608
34.282,33.583
34.387,33.557
34.503,33.531
34.626,33.505
34.756,33.479
34.89,33.452
35.026,33.425
35.163,33.398
35.297,33.372
35.426,33.346
35.55,33.319
35.667,33.291
35.777,33.263
35.88,33.232
35.976,33.199
36.064,33.163
36.144,33.129
36.213,33.099
36.272,33.077
36.322,33.067
36.363,33.069
36.395,33.087
36.42,33.123
36.44,33.178
36.456,33.254
36.467,33.35
36.472,33.465
36.473,33.598
36.467,33.747
36.455,33.909
36.436,34.082
36.412,34.264
36.381,34.453
36.346,34.647
36.307,34.844
36.266,35.041
36.223,35.236
36.181,35.425
36.14,35.608
36.099,35.783
36.06,35.95
36.021,36.109
35.984,36.259
35.948,36.399
35.913,36.528
35.878,36.647
35.844,36.754
35.81,36.851
35.776,36.937
35.741,37.014
35.706,37.081
35.67,37.138
35.634,37.187
35.596,37.227
35.558,37.258
35.52,37.28
35.483,37.295
35.447,37.302
35.412,37.302
35.381,37.295
35.353,37.282
35.33,37.263
35.311,37.24
35.297,37.214
35.286,37.186
35.28,37.155
35.278,37.123
35.279,37.089
35.284,37.054
35.292,37.017
35.304,36.979
35.319,36.94
35.335,36.901
35.353,36.861
35.372,36.821
35.392,36.781
35.413,36.74
35.433,36.698
35.453,36.653
35.471,36.607
35.488,36.558
35.503,36.507
35.516,36.457
35.526,36.408
35.535,36.361
35.542,36.315
35.548,36.271
35.552,36.229
35.554,36.189
35.553,36.152
35.55,36.118
35.543,36.09
35.532,36.067
35.518,36.049
35.501,36.036
35.48,36.026
35.456,36.018
35.428,36.014
35.397,36.012
35.364,36.013
35.329,36.016
35.294,36.023
35.258,36.032
35.223,36.044
35.188,36.057
35.155,36.072
35.124,36.089
35.095,36.105
35.067,36.121
35.04,36.136
35.014,36.15
34.988,36.161
34.963,36.171
34.938,36.181
34.914,36.19
34.891,36.2
34.87,36.209
34.852,36.216
34.836,36.218
34.821,36.216
34.806,36.207
34.79,36.193
34.773,36.174
34.755,36.15
34.735,36.123
34.715,36.093
34.694,36.061
34.671,36.027
34.647,35.992
34.62,35.956
34.592,35.92
34.564,35.884
34.536,35.849
34.51,35.815
34.487,35.781
34.466,35.747
34.448,35.711
34.432,35.675
34.419,35.636
34.407,35.597
34.397,35.557
34.387,35.516
34.378,35.475
34.368,35.434
34.358,35.393
34.35,35.352
34.342,35.311
34.336,35.271
34.33,35.232
34.323,35.195
34.316,35.16
34.307,35.125
34.297,35.09
34.286,35.055
34.274,35.019
34.262,34.984
34.25,34.95
34.238,34.916
34.225,34.884
34.212,34.853
34.197,34.822
34.182,34.792
34.165,34.762
34.147,34.734
34.129,34.707
34.112,34.683
34.095,34.662
34.08,34.642
34.065,34.624
34.049,34.606
34.032,34.588
34.015,34.569
33.998,34.551
33.98,34.534
33.962,34.519
33.944,34.504
33.925,34.491
33.906,34.478
33.886,34.464
33.867,34.449
33.849,34.434
33.832,34.42
33.816,34.407
33.801,34.394
33.788,34.383
33.776,34.373
33.765,34.364
33.756,34.355
33.749,34.346
33.743,34.337
33.739,34.329
33.736,34.32
33.735,34.31
33.737,34.3
33.742,34.289
33.751,34.278
33.764,34.266
33.784,34.255
33.81,34.243
33.844,34.23
33.886,34.217
33.938,34.203
33.999,34.189
34.071,34.174
34.154,34.158
34.248,34.141
34.354,34.123
34.47,34.103
34.596,34.081
34.728,34.057
34.866,34.03
35.009,34
35.153,33.969
35.298,33.936
35.442,33.902
35.585,33.869
35.723,33.835
35.856,33.803
35.983,33.772
36.101,33.743
36.21,33.718
36.308,33.697
36.394,33.681
36.469,33.67
36.531,33.665
36.58,33.666
36.618,33.672
36.645,33.684
36.663,33.703
36.673,33.732
36.674,33.771
36.668,33.823
36.654,33.889
36.633,33.97
36.604,34.067
36.57,34.177
36.532,34.3
36.491,34.43
36.45,34.564
36.41,34.702
36.372,34.846
36.337,34.994
36.306,35.149
36.279,35.308
36.257,35.471
36.238,35.637
36.22,35.804
36.204,35.971
36.187,36.134
36.171,36.293
36.153,36.445
36.134,36.587
36.114,36.718
36.093,36.835
36.071,36.936
36.047,37.022
36.021,37.094
35.991,37.152
35.957,37.199
35.92,37.232
35.882,37.251
35.843,37.257
35.805,37.25
35.769,37.233
35.734,37.207
35.702,37.177
35.672,37.144
35.645,37.109
35.622,37.073
35.603,37.035
35.588,36.997
35.576,36.958
35.567,36.919
35.56,36.879
35.556,36.838
35.553,36.796
35.554,36.753
35.556,36.709
35.562,36.662
35.57,36.613
35.579,36.563
35.591,36.511
35.603,36.457
35.617,36.401
35.63,36.344
35.644,36.285
35.655,36.226
35.664,36.167
35.671,36.11
35.675,36.054
35.678,36.002
35.68,35.951
35.68,35.904
35.679,35.86
35.676,35.82
35.672,35.786
35.667,35.756
35.66,35.732
35.651,35.714
35.639,35.701
35.625,35.694
35.608,35.692
35.588,35.695
35.565,35.702
35.538,35.713
35.507,35.728
35.473,35.745
35.438,35.764
35.401,35.786
35.363,35.807
35.327,35.829
35.293,35.85
35.259,35.87
35.228,35.889
35.198,35.905
35.169,35.92
35.141,35.932
35.115,35.942
35.09,35.95
35.066,35.955
35.044,35.957
35.023,35.956
35.004,35.952
34.986,35.945
34.97,35.937
34.955,35.925
34.942,35.911
34.929,35.892
34.916,35.87
34.903,35.843
34.889,35.814
34.874,35.783
34.857,35.751
34.838,35.719
34.818,35.685
34.797,35.649
34.774,35.611
34.75,35.569
34.724,35.524
34.698,35.477
34.673,35.431
34.648,35.385
34.624,35.34
34.601,35.294
34.579,35.249
34.558,35.202
34.539,35.153
34.521,35.104
34.505,35.055
34.491,35.006
34.478,34.959
34.466,34.913
34.454,34.867
34.443,34.822
34.432,34.778
34.421,34.735
34.411,34.693
34.401,34.653
34.393,34.614
34.386,34.575
34.379,34.536
34.372,34.498
34.365,34.46
34.357,34.422
34.351,34.386
34.348,34.35
34.348,34.316
34.35,34.284
34.354,34.253
34.36,34.223
34.365,34.195
34.37,34.168
34.373,34.142
34.373,34.117
34.37,34.094
34.365,34.074
34.356,34.055
34.344,34.038
34.33,34.022
34.313,34.007
34.295,33.992
34.276,33.977
34.254,33.963
34.231,33.949
34.207,33.936
34.181,33.923
34.154,33.911
34.127,33.899
34.1,33.888
34.074,33.878
34.05,33.87
34.027,33.864
34.007,33.861
33.987,33.86
33.968,33.861
33.948,33.862
33.929,33.864
33.911,33.865
33.893,33.865
33.877,33.864
33.86,33.862
33.845,33.859
33.83,33.854
33.816,33.845
33.805,33.833
33.796,33.818
33.79,33.798
33.788,33.774
33.79,33.746
33.795,33.713
33.805,33.677
33.82,33.638
33.842,33.595
33.873,33.552
33.913,33.507
33.963,33.463
34.023,33.42
34.096,33.38
34.18,33.342
34.275,33.307
34.382,33.274
34.5,33.243
34.627,33.214
34.76,33.187
34.899,33.163
35.039,33.141
35.18,33.121
35.32,33.103
35.456,33.09
35.588,33.083
35.714,33.084
35.833,33.094
35.944,33.114
36.046,33.143
36.139,33.183
36.22,33.232
36.292,33.292
36.355,33.361
36.409,33.441
36.454,33.53
36.491,33.63
36.52,33.74
36.541,33.859
36.555,33.986
36.563,34.118
36.565,34.255
36.562,34.394
36.555,34.536
36.545,34.679
36.532,34.824
36.517,34.968
36.501,35.111
36.483,35.251
36.465,35.387
36.447,35.516
36.43,35.638
36.414,35.751
36.398,35.855
36.382,35.951
36.366,36.036
36.35,36.111
36.334,36.175
36.319,36.228
36.304,36.269
36.29,36.3
36.274,36.32
36.258,36.33
36.24,36.333
36.221,36.327
36.201,36.315
36.18,36.297
36.159,36.274
36.136,36.249
36.112,36.222
36.087,36.193
36.061,36.164
36.034,36.133
36.007,36.101
35.978,36.068
35.948,36.033
35.918,35.996
35.887,35.957
35.858,35.917
35.829,35.876
35.8,35.834
35.772,35.79
35.745,35.744
35.718,35.696
35.692,35.647
35.668,35.598
35.646,35.548
35.627,35.5
35.611,35.453
35.598,35.407
35.588,35.364
35.581,35.323
35.578,35.283
35.577,35.247
35.578,35.213
35.581,35.184
35.585,35.16
35.591,35.141
35.598,35.126
35.606,35.116
35.614,35.11
35.623,35.109
35.631,35.112
35.639,35.12
35.645,35.133
35.651,35.152
35.654,35.174
35.655,35.201
35.653,35.23
35.648,35.261
35.64,35.293
35.629,35.326
35.613,35.359
35.593,35.391
35.568,35.422
35.54,35.451
35.508,35.478
35.473,35.503
35.436,35.527
35.397,35.55
35.356,35.571
35.313,35.591
35.269,35.609
35.225,35.625
35.181,35.637
35.136,35.646
35.092,35.652
35.048,35.655
35.006,35.656
34.966,35.655
34.931,35.651
34.899,35.643
34.871,35.632
34.848,35.617
34.827,35.598
34.809,35.577
34.792,35.554
34.778,35.53
34.766,35.505
34.756,35.478
34.746,35.45
34.737,35.419
34.728,35.387
34.719,35.353
34.709,35.317
34.699,35.281
34.688,35.246
34.677,35.21
34.665,35.174
34.653,35.138
34.641,35.101
34.628,35.065
34.613,35.029
34.597,34.994
34.58,34.96
34.561,34.926
34.54,34.893
34.518,34.861
34.494,34.83
34.469,34.799
34.444,34.77
34.42,34.741
34.397,34.714
34.377,34.688
34.359,34.664
34.343,34.641
34.327,34.621
34.313,34.602
34.3,34.584
34.289,34.567
34.28,34.551
34.274,34.536
34.27,34.522
34.267,34.509
34.266,34.497
34.266,34.487
34.265,34.478
34.264,34.469
34.262,34.461
34.259,34.453
34.255,34.446
34.249,34.439
34.243,34.432
34.236,34.426
34.228,34.42
34.22,34.412
34.211,34.404
34.202,34.395
34.193,34.384
34.182,34.372
34.172,34.358
34.161,34.343
34.151,34.325
34.141,34.306
34.134,34.284
34.13,34.26
34.128,34.234
34.127,34.205
34.126,34.175
34.122,34.143
34.114,34.111
34.102,34.078
34.085,34.045
34.064,34.012
34.039,33.983
34.011,33.957
33.979,33.935
33.944,33.917
33.908,33.902
33.87,33.892
33.834,33.885
33.801,33.881
33.771,33.881
33.746,33.884
33.725,33.89
33.708,33.901
33.695,33.918
33.686,33.941
33.68,33.975
33.678,34.02
33.679,34.08
33.683,34.153
33.69,34.239
33.701,34.337
33.716,34.445
33.736,34.56
33.761,34.681
33.793,34.806
33.834,34.937
33.884,35.072
33.944,35.211
34.014,35.351
34.093,35.491
34.182,35.629
34.28,35.764
34.387,35.895
34.501,36.022
34.622,36.147
34.747,36.268
34.875,36.386
35.004,36.499
35.132,36.604
35.259,36.7
35.383,36.787
35.503,36.864
35.617,36.929
35.725,36.985
35.825,37.029
35.917,37.063
35.999,37.087
36.073,37.102
36.139,37.108
36.196,37.106
36.244,37.097
36.282,37.083
36.31,37.063
36.331,37.037
36.344,37.008
36.35,36.975
36.352,36.938
36.35,36.899
36.345,36.858
36.337,36.815
36.326,36.77
36.313,36.724
36.297,36.675
36.278,36.624
36.257,36.57
36.234,36.513
36.21,36.456
36.186,36.398
36.16,36.34
36.135,36.284
36.109,36.227
36.086,36.17
36.066,36.112
36.049,36.052
36.033,35.992
36.016,35.932
35.999,35.872
35.98,35.812
35.958,35.753
35.935,35.695
35.91,35.639
35.884,35.585
35.856,35.536
35.827,35.492
35.798,35.454
35.767,35.422
35.737,35.396
35.706,35.375
35.676,35.36
35.646,35.35
35.619,35.344
35.593,35.344
35.569,35.349
35.546,35.36
35.526,35.375
35.51,35.394
35.498,35.414
35.489,35.435
35.483,35.455
35.48,35.476
35.48,35.497
35.484,35.519
35.49,35.541
35.5,35.563
35.513,35.584
35.53,35.602
35.55,35.619
35.573,35.633
35.597,35.645
35.623,35.653
35.649,35.659
35.674,35.662
35.7,35.66
35.723,35.654
35.745,35.643
35.763,35.628
35.778,35.611
35.788,35.591
35.795,35.569
35.799,35.545
35.801,35.518
35.8,35.489
35.797,35.456
35.792,35.422
35.784,35.386
35.773,35.35
35.761,35.314
35.749,35.278
35.736,35.242
35.723,35.205
35.71,35.166
35.697,35.126
35.683,35.085
35.668,35.044
35.652,35.002
35.635,34.961
35.616,34.919
35.595,34.877
35.572,34.835
35.545,34.793
35.516,34.751
35.483,34.709
35.448,34.669
35.41,34.631
35.37,34.593
35.329,34.558
35.287,34.524
35.244,34.493
35.199,34.464
35.155,34.438
35.112,34.414
35.069,34.393
35.03,34.372
34.993,34.352
34.96,34.333
34.93,34.313
34.904,34.294
34.881,34.275
34.862,34.257
34.847,34.24
34.835,34.225
34.825,34.212
34.818,34.201
34.811,34.191
34.804,34.182
34.796,34.173
34.786,34.163
34.775,34.154
34.762,34.144
34.749,34.134
34.735,34.123
34.721,34.11
34.709,34.096
34.698,34.08
34.69,34.064
34.684,34.048
34.68,34.033
34.678,34.02
34.677,34.008
34.676,33.998
34.674,33.99
34.67,33.983
34.665,33.978
34.659,33.975
34.653,33.972
34.648,33.969
34.643,33.967
34.639,33.962
34.634,33.956
34.627,33.946
34.618,33.934
34.607,33.92
34.593,33.906
34.577,33.891
34.56,33.875
34.541,33.858
34.522,33.838
34.502,33.817
34.483,33.794
34.466,33.77
34.452,33.749
34.44,33.731
34.431,33.717
34.423,33.71
34.418,33.709
34.413,33.715
34.408,33.729
34.404,33.753
34.398,33.788
34.391,33.835
34.382,33.895
34.371,33.969
34.357,34.055
34.341,34.153
34.323,34.263
34.304,34.383
34.285,34.513
34.265,34.653
34.245,34.801
34.223,34.955
34.201,35.115
34.18,35.279
34.159,35.445
34.14,35.611
34.125,35.775
34.116,35.937
34.113,36.093
34.118,36.243
34.132,36.386
34.154,36.518
34.187,36.641
34.233,36.752
34.292,36.852
34.365,36.941
34.452,37.019
34.551,37.086
34.662,37.143
34.782,37.188
34.91,37.223
35.045,37.248
35.184,37.264
35.325,37.272
35.467,37.274
35.606,37.27
35.74,37.261
35.868,37.247
35.989,37.229
36.102,37.205
36.205,37.177
36.299,37.145
36.383,37.109
36.459,37.071
36.525,37.031
36.583,36.99
36.631,36.948
36.67,36.905
36.701,36.862
36.724,36.82
36.738,36.779
36.744,36.739
36.742,36.699
36.733,36.66
36.717,36.62
36.696,36.58
36.673,36.539
36.648,36.497
36.623,36.455
36.597,36.413
36.572,36.371
36.546,36.329
36.52,36.285
36.494,36.24
36.469,36.194
36.446,36.148
36.424,36.103
36.403,36.062
36.384,36.025
36.365,35.993
36.347,35.965
36.329,35.942
36.309,35.924
36.288,35.911
36.264,35.903
36.238,35.9
36.209,35.901
36.179,35.905
36.147,35.913
36.115,35.923
36.084,35.935
36.053,35.949
36.023,35.964
35.994,35.98
35.966,35.995
35.938,36.01
35.912,36.024
35.889,36.038
35.869,36.05
35.853,36.061
35.841,36.071
35.833,36.081
35.828,36.09
35.826,36.097
35.827,36.103
35.831,36.108
35.838,36.11
35.846,36.11
35.856,36.108
35.867,36.102
35.877,36.094
35.887,36.082
35.897,36.068
35.905,36.051
35.912,36.031
35.917,36.008
35.921,35.984
35.925,35.957
35.929,35.928
35.933,35.897
35.935,35.865
35.936,35.833
35.936,35.798
35.933,35.763
35.927,35.727
35.919,35.69
35.905,35.653
35.888,35.616
35.867,35.581
35.842,35.547
35.816,35.512
35.788,35.476
35.758,35.438
35.724,35.398
35.686,35.358
35.646,35.319
35.606,35.282
35.566,35.246
35.528,35.211
35.493,35.174
35.46,35.135
35.431,35.095
35.406,35.052
35.386,35.011
35.369,34.97
35.355,34.932
35.343,34.897
35.332,34.862
35.322,34.829
35.31,34.796
35.297,34.765
35.281,34.735
35.262,34.708
35.24,34.684
35.216,34.662
35.19,34.642
35.163,34.623
35.135,34.604
35.106,34.587
35.077,34.57
35.047,34.555
35.017,34.54
34.988,34.524
34.96,34.507
34.933,34.489
34.907,34.471
34.881,34.453
34.856,34.436
34.831,34.421
34.809,34.406
34.789,34.394
34.772,34.383
34.757,34.373
34.744,34.365
34.732,34.356
34.721,34.348
34.71,34.341
34.7,34.333
34.689,34.324
34.679,34.315
34.669,34.305
34.659,34.293
34.648,34.281
34.639,34.268
34.629,34.255
34.621,34.242
34.614,34.229
34.608,34.214
34.602,34.198
34.597,34.182
34.591,34.166
34.584,34.15
34.576,34.134
34.568,34.117
34.562,34.1
34.556,34.081
34.55,34.062
34.545,34.042
34.54,34.022
34.533,34.002
34.525,33.984
34.515,33.971
34.503,33.964
34.491,33.964
34.477,33.969
34.461,33.98
34.445,33.994
34.427,34.012
34.408,34.033
34.391,34.057
34.374,34.086
34.36,34.121
34.347,34.162
34.335,34.211
34.325,34.27
34.317,34.339
34.308,34.419
34.301,34.51
34.293,34.613
34.286,34.728
34.278,34.853
34.27,34.989
34.26,35.135
34.25,35.288
34.238,35.447
34.225,35.611
34.212,35.777
34.199,35.942
34.186,36.105
34.172,36.264
34.157,36.415
34.141,36.558
34.125,36.691
34.109,36.813
34.094,36.923
34.082,37.022
34.075,37.11
34.073,37.186
34.078,37.251
34.089,37.304
34.107,37.346
34.129,37.378
34.156,37.399
34.188,37.412
34.225,37.416
34.269,37.414
34.322,37.404
34.385,37.389
34.459,37.367
34.545,37.339
34.642,37.308
34.75,37.273
34.867,37.236
34.993,37.198
35.126,37.16
35.263,37.12
35.403,37.077
35.545,37.033
35.686,36.986
35.824,36.938
35.957,36.889
36.083,36.839
36.201,36.79
36.308,36.742
36.405,36.697
36.489,36.656
36.563,36.618
36.628,36.583
36.682,36.551
36.725,36.522
36.758,36.494
36.781,36.467
36.792,36.441
36.794,36.416
36.786,36.391
36.77,36.368
36.745,36.345
36.714,36.323
36.678,36.303
36.637,36.283
36.594,36.265
36.55,36.25
36.507,36.237
36.466,36.226
36.429,36.219
36.395,36.213
36.365,36.21
36.338,36.207
36.314,36.205
36.293,36.202
36.274,36.2
36.257,36.199
36.24,36.199
36.222,36.201
36.203,36.204
36.18,36.208
36.155,36.211
36.127,36.213
36.096,36.213
36.064,36.212
36.031,36.21
35.996,36.208
35.962,36.207
35.928,36.207
35.895,36.206
35.863,36.204
35.833,36.199
35.805,36.19
35.78,36.178
35.757,36.163
35.737,36.144
35.719,36.124
35.704,36.102
35.693,36.078
35.686,36.052
35.683,36.024
35.685,35.995
35.691,35.964
35.7,35.932
35.711,35.9
35.724,35.868
35.738,35.834
35.753,35.8
35.769,35.764
35.785,35.728
35.8,35.69
35.812,35.651
35.821,35.612
35.828,35.572
35.832,35.53
35.833,35.488
35.831,35.444
35.827,35.399
35.82,35.353
35.81,35.307
35.798,35.261
35.784,35.217
35.769,35.175
35.753,35.135
35.737,35.097
35.721,35.062
35.703,35.03
35.685,34.999
35.665,34.972
35.645,34.946
35.624,34.922
35.603,34.898
35.583,34.875
35.563,34.852
35.543,34.829
35.522,34.806
35.501,34.783
35.477,34.761
35.453,34.74
35.428,34.72
35.402,34.699
35.376,34.678
35.348,34.657
35.317,34.634
35.285,34.611
35.25,34.588
35.214,34.566
35.177,34.544
35.143,34.522
35.111,34.499
35.083,34.476
35.058,34.452
35.037,34.429
35.018,34.407
34.999,34.389
34.981,34.373
34.963,34.36
34.943,34.349
34.923,34.338
34.902,34.329
34.88,34.319
34.857,34.308
34.834,34.298
34.81,34.288
34.786,34.278
34.761,34.268
34.737,34.256
34.712,34.244
34.689,34.231
34.667,34.217
34.646,34.203
34.628,34.189
34.613,34.174
34.6,34.159
34.59,34.142
34.581,34.122
34.572,34.1
34.564,34.074
34.556,34.047
34.549,34.019
34.542,33.992
34.538,33.964
34.534,33.937
34.53,33.909
34.526,33.88
34.521,33.851
34.515,33.823
34.509,33.799
34.501,33.78
34.492,33.765
34.481,33.758
34.47,33.759
34.457,33.767
34.445,33.785
34.433,33.811
34.422,33.848
34.41,33.895
34.399,33.953
34.388,34.022
34.377,34.101
34.366,34.19
34.356,34.287
34.346,34.392
34.336,34.505
34.327,34.627
34.318,34.759
34.308,34.897
34.299,35.043
34.288,35.191
34.276,35.342
34.263,35.494
34.25,35.646
34.237,35.795
34.223,35.942
34.21,36.082
34.197,36.216
34.184,36.341
34.169,36.456
34.153,36.562
34.136,36.658
34.119,36.745
34.103,36.822
34.086,36.889
34.07,36.946
34.053,36.993
34.035,37.031
34.018,37.059
34.001,37.079
33.985,37.09
33.971,37.095
33.958,37.092
33.946,37.083
33.936,37.069
33.927,37.049
33.919,37.024
33.913,36.997
33.91,36.967
33.909,36.935
33.913,36.9
33.921,36.864
33.935,36.825
33.955,36.785
33.984,36.743
34.021,36.7
34.069,36.656
34.127,36.61
34.197,36.563
34.279,36.514
34.373,36.464
34.478,36.412
34.594,36.359
34.719,36.306
34.852,36.253
34.991,36.201
35.133,36.151
35.277,36.103
35.418,36.057
35.556,36.015
35.688,35.975
35.813,35.94
35.931,35.909
36.04,35.884
36.141,35.864
36.234,35.85
36.318,35.844
36.394,35.844
36.462,35.85
36.521,35.862
36.571,35.88
36.611,35.902
36.642,35.93
36.663,35.963
36.674,36
36.676,36.04
36.67,36.081
36.657,36.12
36.638,36.158
36.613,36.194
36.584,36.23
36.55,36.265
36.513,36.299
36.474,36.331
36.432,36.359
36.39,36.382
36.347,36.398
36.306,36.407
36.266,36.412
36.226,36.412
36.188,36.407
36.152,36.399
36.117,36.386
36.085,36.369
36.056,36.348
36.03,36.322
36.006,36.295
35.985,36.267
35.964,36.239
35.943,36.211
35.922,36.182
35.899,36.153
35.874,36.122
35.847,36.09
35.817,36.057
35.786,36.022
35.753,35.985
35.719,35.947
35.684,35.908
35.651,35.868
35.618,35.826
35.587,35.783
35.559,35.738
35.534,35.692
35.511,35.645
35.492,35.597
35.476,35.548
35.465,35.5
35.458,35.453
35.456,35.406
35.459,35.362
35.467,35.321
35.479,35.281
35.494,35.245
35.511,35.21
35.532,35.177
35.556,35.145
35.582,35.114
35.609,35.085
35.636,35.056
35.662,35.027
35.685,34.998
35.706,34.97
35.723,34.941
35.736,34.912
35.746,34.881
35.752,34.85
35.755,34.819
35.754,34.788
35.75,34.757
35.744,34.728
35.736,34.699
35.725,34.671
35.711,34.645
35.695,34.621
35.675,34.598
35.652,34.577
35.625,34.558
35.597,34.541
35.568,34.527
35.54,34.514
35.514,34.503
35.49,34.492
35.467,34.483
35.445,34.476
35.423,34.47
35.401,34.466
35.379,34.464
35.356,34.465
35.333,34.469
35.31,34.474
35.285,34.481
35.259,34.489
35.233,34.498
35.206,34.507
35.179,34.515
35.152,34.522
35.127,34.527
35.103,34.53
35.08,34.529
35.059,34.524
35.038,34.516
35.017,34.505
34.995,34.492
34.972,34.476
34.949,34.458
34.925,34.438
34.901,34.416
34.875,34.391
34.849,34.365
34.823,34.337
34.797,34.31
34.772,34.283
34.749,34.257
34.728,34.23
34.709,34.203
34.691,34.176
34.674,34.149
34.659,34.123
34.645,34.1
34.632,34.08
34.621,34.064
34.612,34.053
34.603,34.048
34.596,34.049
34.59,34.056
34.586,34.072
34.585,34.096
34.586,34.13
34.588,34.176
34.593,34.232
34.599,34.3
34.605,34.38
34.611,34.471
34.615,34.573
34.618,34.685
34.62,34.809
34.62,34.941
34.62,35.083
34.618,35.232
34.615,35.385
34.61,35.542
34.603,35.7
34.595,35.858
34.584,36.014
34.572,36.166
34.559,36.313
34.545,36.456
34.531,36.598
34.516,36.743
34.501,36.891
34.486,37.038
34.471,37.181
34.456,37.314
34.443,37.435
34.431,37.538
34.419,37.622
34.407,37.684
34.396,37.724
34.385,37.742
34.374,37.74
34.365,37.721
34.357,37.688
34.35,37.643
34.345,37.589
34.34,37.527
34.337,37.46
34.336,37.388
34.338,37.316
34.344,37.243
34.356,37.173
34.374,37.106
34.398,37.044
34.429,36.985
34.468,36.931
34.516,36.879
34.573,36.831
34.641,36.784
34.719,36.74
34.808,36.696
34.907,36.651
35.013,36.605
35.127,36.556
35.247,36.505
35.372,36.452
35.499,36.397
35.626,36.342
35.753,36.287
35.876,36.232
35.994,36.176
36.107,36.122
36.212,36.069
36.309,36.019
36.399,35.973
36.482,35.934
36.558,35.901
36.628,35.874
36.692,35.855
36.752,35.841
36.807,35.833
36.857,35.83
36.903,35.832
36.942,35.84
36.974,35.853
37,35.87
37.018,35.89
37.029,35.912
37.032,35.936
37.028,35.959
37.019,35.98
37.006,36
36.988,36.018
36.966,36.034
36.939,36.048
36.909,36.06
36.876,36.071
36.842,36.08
36.807,36.088
36.774,36.096
36.741,36.103
36.708,36.108
36.677,36.112
36.646,36.114
36.615,36.114
36.584,36.111
36.554,36.104
36.523,36.093
36.491,36.078
36.457,36.059
36.422,36.034
36.384,36.005
36.344,35.972
36.304,35.935
36.264,35.895
36.225,35.854
36.188,35.812
36.152,35.77
36.119,35.727
36.088,35.685
36.059,35.642
36.034,35.598
36.011,35.554
35.993,35.51
35.978,35.466
35.965,35.422
35.955,35.38
35.947,35.338
35.941,35.298
35.938,35.258
35.939,35.218
35.944,35.179
35.952,35.139
35.963,35.1
35.975,35.06
35.988,35.021
36.003,34.982
36.018,34.944
36.034,34.908
36.049,34.875
36.064,34.843
36.078,34.813
36.09,34.785
36.101,34.759
36.11,34.734
36.116,34.709
36.119,34.684
36.12,34.66
36.117,34.642
36.112,34.629
36.103,34.621
36.09,34.617
36.075,34.614
36.057,34.609
36.037,34.6
36.016,34.584
35.993,34.561
35.968,34.531
35.94,34.497
35.91,34.459
35.879,34.421
35.846,34.382
35.814,34.343
35.783,34.306
35.752,34.269
35.722,34.234
35.692,34.203
35.664,34.177
35.636,34.156
35.61,34.139
35.584,34.127
35.56,34.116
35.535,34.106
35.51,34.095
35.485,34.084
35.46,34.074
35.434,34.064
35.407,34.057
35.38,34.05
35.351,34.042
35.323,34.032
35.294,34.018
35.265,33.999
35.237,33.975
35.208,33.95
35.18,33.924
35.152,33.899
35.123,33.874
35.095,33.848
35.067,33.822
35.039,33.794
35.011,33.767
34.985,33.742
34.96,33.72
34.937,33.702
34.916,33.687
34.898,33.674
34.88,33.661
34.862,33.648
34.843,33.636
34.825,33.625
34.807,33.619
34.79,33.617
34.776,33.621
34.764,33.631
34.753,33.646
34.744,33.666
34.736,33.694
34.727,33.729
34.719,33.775
34.71,33.832
34.702,33.901
34.695,33.984
34.689,34.079
34.684,34.186
34.681,34.305
34.681,34.436
34.682,34.579
34.684,34.733
34.687,34.896
34.688,35.068
34.688,35.245
34.686,35.425
34.682,35.606
34.675,35.785
34.666,35.96
34.654,36.13
34.64,36.293
34.625,36.446
34.61,36.588
34.596,36.717
34.583,36.834
34.572,36.938
34.567,37.028
34.569,37.106
34.575,37.172
34.583,37.226
34.59,37.269
34.595,37.301
34.593,37.322
34.583,37.334
34.565,37.338
34.54,37.335
34.508,37.325
34.472,37.31
34.433,37.289
34.394,37.263
34.358,37.234
34.325,37.201
34.3,37.164
34.285,37.123
34.282,37.08
34.293,37.034
34.32,36.986
34.363,36.936
34.422,36.884
34.499,36.831
34.594,36.775
34.705,36.717
34.83,36.656
34.968,36.593
35.117,36.527
35.273,36.459
35.434,36.389
35.598,36.319
35.761,36.248
35.923,36.177
36.081,36.11
36.233,36.045
36.377,35.985
36.512,35.929
36.636,35.878
36.749,35.831
36.849,35.789
36.939,35.753
37.017,35.724
37.084,35.702
37.141,35.688
37.189,35.681
37.227,35.681
37.257,35.687
37.279,35.698
37.294,35.714
37.304,35.733
37.309,35.756
37.309,35.783
37.306,35.811
37.3,35.841
37.291,35.872
37.28,35.901
37.267,35.929
37.253,35.955
37.237,35.98
37.221,36.004
37.202,36.026
37.182,36.046
37.159,36.063
37.134,36.077
37.107,36.086
37.079,36.092
37.049,36.095
37.017,36.096
36.983,36.096
36.949,36.094
36.914,36.089
36.88,36.082
36.847,36.072
36.815,36.058
36.783,36.042
36.752,36.022
36.72,36.001
36.689,35.976
36.657,35.948
36.625,35.918
36.593,35.885
36.562,35.848
36.532,35.81
36.504,35.77
36.478,35.729
36.453,35.687
36.431,35.645
36.411,35.602
36.395,35.559
36.381,35.515
36.37,35.47
36.361,35.424
36.356,35.379
36.353,35.334
36.352,35.289
36.352,35.243
36.352,35.198
36.353,35.153
36.354,35.108
36.354,35.063
36.352,35.019
36.349,34.974
36.344,34.93
36.34,34.886
36.337,34.843
36.337,34.801
36.338,34.759
36.34,34.719
36.343,34.68
36.344,34.643
36.343,34.608
36.338,34.574
36.331,34.54
36.321,34.508
36.309,34.479
36.296,34.453
36.282,34.43
36.267,34.411
36.252,34.394
36.236,34.379
36.221,34.365
36.205,34.352
36.189,34.339
36.172,34.325
36.152,34.311
36.131,34.297
36.107,34.285
36.08,34.274
36.051,34.263
36.02,34.249
35.986,34.233
35.952,34.215
35.916,34.197
35.88,34.178
35.844,34.162
35.81,34.147
35.776,34.136
35.744,34.126
35.713,34.118
35.684,34.112
35.655,34.107
35.627,34.103
35.6,34.1
35.573,34.097
35.546,34.094
35.521,34.09
35.496,34.084
35.472,34.074
35.448,34.062
35.424,34.047
35.401,34.029
35.378,34.01
35.356,33.989
35.333,33.967
35.31,33.944
35.287,33.92
35.261,33.896
35.233,33.871
35.203,33.848
35.172,33.827
35.141,33.81
35.109,33.795
35.078,33.785
35.049,33.779
35.02,33.779
34.994,33.785
34.969,33.798
34.946,33.821
34.924,33.855
34.905,33.902
34.886,33.96
34.87,34.032
34.854,34.116
34.839,34.213
34.826,34.323
34.815,34.447
34.806,34.584
34.799,34.733
34.795,34.892
34.792,35.061
34.789,35.236
34.786,35.414
34.782,35.593
34.777,35.772
34.771,35.95
34.765,36.125
34.757,36.297
34.75,36.463
34.741,36.619
34.733,36.763
34.724,36.893
34.715,37.008
34.706,37.11
34.697,37.196
34.687,37.27
34.676,37.331
34.662,37.381
34.646,37.42
34.627,37.45
34.606,37.471
34.582,37.484
34.557,37.489
34.53,37.486
34.502,37.475
34.473,37.457
34.444,37.431
34.415,37.398
34.387,37.36
34.36,37.316
34.335,37.267
34.313,37.213
34.294,37.156
34.28,37.094
34.27,37.029
34.266,36.961
34.268,36.89
34.277,36.818
34.295,36.745
34.322,36.672
34.359,36.6
34.407,36.529
34.466,36.457
34.535,36.384
34.614,36.312
34.705,36.238
34.806,36.164
34.917,36.091
35.037,36.019
35.165,35.948
35.298,35.88
35.435,35.813
35.574,35.749
35.714,35.687
35.854,35.63
35.993,35.578
36.127,35.532
36.257,35.494
36.382,35.463
36.5,35.438
36.611,35.417
36.714,35.401
36.81,35.39
36.897,35.383
36.977,35.383
37.053,35.39
37.125,35.402
37.193,35.42
37.253,35.443
37.306,35.469
37.349,35.499
37.381,35.531
37.402,35.565
37.411,35.599
37.407,35.633
37.394,35.665
37.37,35.694
37.34,35.719
37.306,35.742
37.268,35.761
37.229,35.779
37.189,35.793
37.15,35.805
37.113,35.812
37.078,35.813
37.046,35.808
37.016,35.796
36.987,35.777
36.958,35.753
36.929,35.724
36.899,35.691
36.867,35.654
36.834,35.615
36.799,35.574
36.763,35.531
36.726,35.488
36.687,35.445
36.648,35.404
36.609,35.363
36.569,35.323
36.529,35.283
36.49,35.242
36.451,35.201
36.414,35.161
36.378,35.121
36.342,35.082
36.307,35.042
36.272,35.003
36.239,34.963
36.208,34.923
36.181,34.883
36.157,34.843
36.137,34.802
36.121,34.763
36.108,34.723
36.098,34.684
36.09,34.645
36.085,34.606
36.081,34.567
36.079,34.528
36.077,34.49
36.076,34.452
36.076,34.415
36.076,34.378
36.077,34.341
36.078,34.306
36.079,34.271
36.08,34.238
36.08,34.207
36.08,34.177
36.078,34.15
36.076,34.125
36.074,34.103
36.072,34.083
36.07,34.064
36.067,34.046
36.064,34.028
36.058,34.012
36.051,33.996
36.041,33.981
36.029,33.965
36.015,33.95
36,33.935
35.983,33.92
35.964,33.906
35.942,33.891
35.917,33.878
35.888,33.864
35.855,33.851
35.82,33.837
35.783,33.824
35.743,33.81
35.703,33.796
35.661,33.783
35.619,33.771
35.577,33.76
35.535,33.749
35.495,33.737
35.456,33.725
35.419,33.711
35.384,33.696
35.351,33.679
35.321,33.662
35.292,33.644
35.266,33.625
35.241,33.607
35.219,33.59
35.197,33.574
35.176,33.559
35.155,33.548
35.134,33.539
35.112,33.533
35.091,33.53
35.069,33.53
35.048,33.53
35.026,33.53
35.004,33.531
34.981,33.53
34.956,33.53
34.93,33.528
34.904,33.527
34.877,33.528
34.85,33.53
34.823,33.531
34.795,33.529
34.767,33.525
34.738,33.524
34.709,33.528
34.682,33.544
34.656,33.574
34.631,33.621
34.607,33.688
34.584,33.776
34.562,33.885
34.543,34.015
34.526,34.163
34.512,34.327
34.5,34.507
34.491,34.697
34.483,34.896
34.477,35.099
34.472,35.303
34.467,35.504
34.462,35.699
34.457,35.884
34.451,36.059
34.445,36.222
34.441,36.371
34.437,36.505
34.434,36.626
34.431,36.733
34.428,36.827
34.424,36.909
34.419,36.979
34.413,37.038
34.406,37.086
34.396,37.125
34.385,37.155
34.372,37.175
34.355,37.185
34.337,37.184
34.316,37.174
34.294,37.156
34.27,37.13
34.246,37.101
34.221,37.067
34.194,37.032
34.165,36.996
34.135,36.958
34.104,36.92
34.075,36.88
34.046,36.841
34.02,36.801
33.996,36.761
33.974,36.72
33.955,36.677
33.94,36.631
33.928,36.582
33.92,36.532
33.915,36.479
33.915,36.426
33.919,36.372
33.929,36.318
33.945,36.263
33.969,36.207
34,36.151
34.042,36.097
34.093,36.045
34.155,35.999
34.228,35.958
34.313,35.924
34.408,35.895
34.514,35.873
34.629,35.857
34.752,35.847
34.883,35.843
35.019,35.846
35.158,35.856
35.299,35.873
35.441,35.896
35.58,35.923
35.717,35.953
35.849,35.984
35.975,36.016
36.093,36.048
36.202,36.078
36.302,36.106
36.391,36.131
36.468,36.155
36.532,36.178
36.585,36.2
36.627,36.223
36.659,36.247
36.681,36.271
36.696,36.295
36.703,36.319
36.704,36.341
36.701,36.362
36.693,36.381
36.683,36.399
36.671,36.413
36.657,36.425
36.641,36.434
36.623,36.438
36.6,36.437
36.573,36.431
36.543,36.417
36.511,36.398
36.477,36.372
36.442,36.342
36.406,36.309
36.371,36.273
36.339,36.233
36.309,36.191
36.282,36.144
36.259,36.095
36.236,36.042
36.214,35.988
36.19,35.931
36.164,35.874
36.137,35.816
36.107,35.758
36.076,35.699
36.042,35.64
36.006,35.58
35.968,35.519
35.929,35.459
35.888,35.4
35.847,35.342
35.805,35.287
35.765,35.233
35.726,35.181
35.689,35.13
35.654,35.08
35.622,35.032
35.592,34.986
35.566,34.942
35.542,34.9
35.523,34.86
35.509,34.823
35.5,34.788
35.496,34.755
35.496,34.726
35.5,34.702
35.507,34.683
35.517,34.67
35.529,34.661
35.543,34.656
35.558,34.653
35.574,34.651
35.591,34.65
35.607,34.648
35.623,34.644
35.638,34.639
35.653,34.633
35.667,34.625
35.68,34.616
35.691,34.607
35.699,34.596
35.705,34.585
35.708,34.573
35.707,34.559
35.701,34.544
35.691,34.526
35.678,34.507
35.662,34.485
35.642,34.463
35.62,34.441
35.595,34.419
35.569,34.399
35.542,34.38
35.514,34.363
35.485,34.348
35.455,34.336
35.424,34.326
35.392,34.32
35.358,34.315
35.324,34.313
35.289,34.314
35.254,34.32
35.221,34.331
35.188,34.35
35.157,34.378
35.127,34.415
35.1,34.463
35.075,34.524
35.051,34.598
35.03,34.686
35.009,34.787
34.99,34.901
34.97,35.028
34.949,35.168
34.929,35.319
34.908,35.48
34.888,35.65
34.869,35.827
34.851,36.009
34.834,36.193
34.818,36.378
34.802,36.562
34.786,36.743
34.769,36.919
34.752,37.09
34.734,37.253
34.715,37.409
34.695,37.554
34.674,37.689
34.653,37.81
34.631,37.917
34.609,38.011
34.587,38.092
34.566,38.161
34.546,38.219
34.527,38.266
34.51,38.301
34.494,38.326
34.478,38.341
34.463,38.346
34.449,38.344
34.437,38.336
34.425,38.321
34.415,38.301
34.404,38.276
34.394,38.246
34.383,38.211
34.373,38.172
34.363,38.132
34.354,38.09
34.347,38.046
34.341,38.003
34.335,37.96
34.329,37.917
34.323,37.876
34.317,37.837
34.311,37.803
34.304,37.772
34.296,37.741
34.288,37.709
34.28,37.673
34.272,37.63
34.264,37.58
34.256,37.523
34.248,37.458
34.239,37.387
34.23,37.31
34.22,37.228
34.21,37.144
34.201,37.06
34.191,36.978
34.182,36.899
34.173,36.826
34.164,36.759
34.155,36.699
34.145,36.648
34.136,36.606
34.127,36.572
34.12,36.547
34.114,36.531
34.113,36.522
34.119,36.519
34.133,36.521
34.157,36.527
34.192,36.536
34.239,36.547
34.297,36.558
34.368,36.569
34.449,36.579
34.542,36.588
34.644,36.595
34.756,36.602
34.874,36.606
34.998,36.609
35.128,36.609
35.26,36.607
35.394,36.603
35.527,36.596
35.657,36.588
35.783,36.579
35.903,36.569
36.016,36.558
36.12,36.543
36.216,36.525
36.302,36.502
36.379,36.476
36.447,36.449
36.506,36.42
36.557,36.393
36.598,36.365
36.631,36.337
36.654,36.306
36.669,36.271
36.677,36.233
36.677,36.192
36.672,36.15
36.661,36.107
36.647,36.065
36.629,36.022
36.608,35.979
36.586,35.935
36.561,35.891
36.536,35.845
36.51,35.801
36.483,35.756
36.455,35.712
36.427,35.667
36.398,35.623
36.37,35.578
36.341,35.534
36.311,35.491
36.281,35.449
36.249,35.41
36.216,35.371
36.181,35.334
36.144,35.298
36.106,35.263
36.067,35.23
36.027,35.198
35.986,35.167
35.943,35.139
35.9,35.112
35.855,35.087
35.808,35.064
35.761,35.043
35.715,35.023
35.671,35.006
35.632,34.991
35.597,34.978
35.567,34.968
35.542,34.96
35.524,34.953
35.51,34.948
35.502,34.943
35.499,34.938
35.5,34.934
35.506,34.932
35.514,34.931
35.524,34.93
35.536,34.93
35.549,34.93
35.562,34.928
35.577,34.924
35.591,34.916
35.605,34.904
35.618,34.889
35.631,34.874
35.644,34.858
35.654,34.844
35.664,34.832
35.671,34.823
35.676,34.817
35.679,34.813
35.679,34.809
35.675,34.805
35.668,34.799
35.658,34.79
35.644,34.776
35.629,34.759
35.612,34.739
35.595,34.717
35.576,34.693
35.556,34.67
35.534,34.648
35.51,34.63
35.486,34.616
35.462,34.607
35.44,34.605
35.418,34.614
35.397,34.635
35.377,34.673
35.358,34.728
35.339,34.801
35.321,34.895
35.302,35.007
35.282,35.138
35.261,35.287
35.239,35.452
35.214,35.632
35.187,35.824
35.158,36.025
35.128,36.233
35.095,36.445
35.062,36.657
35.028,36.866
34.993,37.07
34.959,37.268
34.926,37.458
34.894,37.638
34.865,37.808
34.837,37.965
34.812,38.11
34.788,38.24
34.766,38.356
34.745,38.457
34.724,38.544
34.703,38.618
34.684,38.679
34.665,38.727
34.648,38.762
34.632,38.785
34.617,38.795
34.602,38.796
34.586,38.787
34.57,38.773
34.554,38.754
34.538,38.732
34.524,38.707
34.511,38.679
34.499,38.646
34.489,38.61
34.48,38.57
34.471,38.528
34.464,38.483
34.457,38.436
34.452,38.386
34.447,38.334
34.443,38.278
34.44,38.219
34.438,38.157
34.436,38.091
34.433,38.024
34.429,37.955
34.422,37.885
34.413,37.814
34.402,37.741
34.39,37.668
34.378,37.594
34.365,37.521
34.354,37.45
34.343,37.38
34.333,37.313
34.323,37.249
34.315,37.188
34.306,37.13
34.298,37.077
34.288,37.03
34.278,36.989
34.267,36.955
34.256,36.926
34.243,36.901
34.23,36.879
34.217,36.86
34.204,36.844
34.192,36.83
34.18,36.82
34.17,36.812
34.16,36.807
34.15,36.804
34.139,36.803
34.127,36.802
34.112,36.8
34.093,36.796
34.07,36.791
34.044,36.786
34.017,36.78
33.991,36.774
33.969,36.768
33.952,36.762
33.944,36.756
33.945,36.751
33.958,36.746
33.983,36.742
34.023,36.738
34.076,36.734
34.144,36.73
34.227,36.725
34.322,36.719
34.43,36.711
34.549,36.701
34.679,36.689
34.816,36.674
34.961,36.656
35.11,36.634
35.262,36.609
35.414,36.579
35.564,36.545
35.711,36.506
35.853,36.464
35.989,36.417
36.118,36.367
36.24,36.313
36.353,36.256
36.457,36.195
36.552,36.133
36.638,36.069
36.715,36.005
36.784,35.943
36.846,35.883
36.899,35.824
36.944,35.768
36.981,35.713
37.011,35.66
37.032,35.609
37.046,35.561
37.054,35.515
37.057,35.471
37.055,35.43
37.05,35.39
37.042,35.35
37.032,35.311
37.021,35.272
37.009,35.234
36.997,35.197
36.986,35.162
36.975,35.128
36.966,35.096
36.956,35.065
36.947,35.033
36.938,35.003
36.929,34.974
36.92,34.946
36.911,34.92
36.901,34.897
36.889,34.876
36.875,34.855
36.858,34.835
36.839,34.815
36.815,34.795
36.789,34.773
36.76,34.752
36.728,34.732
36.693,34.712
36.655,34.693
36.615,34.674
36.572,34.653
36.528,34.631
36.483,34.607
36.439,34.582
36.396,34.556
36.356,34.529
36.319,34.501
36.286,34.473
36.257,34.443
36.234,34.413
36.217,34.382
36.205,34.35
36.198,34.319
36.196,34.288
36.198,34.258
36.203,34.229
36.209,34.2
36.217,34.171
36.227,34.142
36.237,34.112
36.247,34.083
36.257,34.057
36.267,34.034
36.275,34.016
36.282,34.003
36.288,33.996
36.292,33.996
36.295,34.005
36.297,34.024
36.298,34.057
36.296,34.105
36.291,34.171
36.283,34.253
36.273,34.354
36.26,34.471
36.245,34.604
36.228,34.753
36.208,34.918
36.186,35.096
36.16,35.286
36.133,35.486
36.104,35.692
36.076,35.902
36.048,36.114
36.021,36.327
35.995,36.539
35.971,36.748
35.948,36.953
35.926,37.15
35.904,37.338
35.884,37.513
35.863,37.674
35.844,37.821
35.824,37.955
35.803,38.075
35.782,38.182
35.759,38.275
35.736,38.354
35.712,38.418
35.687,38.468
35.66,38.504
35.633,38.525
35.604,38.534
35.573,38.53
35.543,38.515
35.512,38.49
35.481,38.457
35.451,38.416
35.421,38.371
35.392,38.321
35.363,38.268
35.333,38.212
35.303,38.155
35.273,38.097
35.241,38.039
35.21,37.98
35.178,37.923
35.147,37.866
35.116,37.811
35.086,37.756
35.057,37.7
35.03,37.644
35.006,37.585
34.984,37.523
34.964,37.458
34.947,37.39
34.932,37.319
34.919,37.246
34.909,37.172
34.902,37.097
34.897,37.023
34.893,36.949
34.89,36.878
34.887,36.809
34.884,36.746
34.88,36.688
34.876,36.637
34.871,36.591
34.864,36.55
34.855,36.513
34.843,36.48
34.829,36.452
34.814,36.428
34.796,36.411
34.777,36.401
34.758,36.398
34.738,36.4
34.717,36.406
34.695,36.413
34.673,36.42
34.65,36.426
34.626,36.432
34.601,36.439
34.575,36.446
34.55,36.454
34.526,36.463
34.504,36.471
34.483,36.477
34.462,36.48
34.441,36.48
34.419,36.475
34.396,36.466
34.372,36.452
34.348,36.432
34.324,36.407
34.3,36.377
34.276,36.341
34.253,36.302
34.23,36.26
34.209,36.215
34.19,36.169
34.174,36.123
34.16,36.075
34.15,36.027
34.144,35.978
34.143,35.93
34.147,35.881
34.157,35.833
34.176,35.784
34.203,35.736
34.24,35.686
34.289,35.636
34.349,35.584
34.422,35.53
34.508,35.474
34.607,35.415
34.717,35.355
34.837,35.295
34.968,35.235
35.107,35.176
35.254,35.119
35.406,35.064
35.559,35.014
35.713,34.968
35.865,34.926
36.015,34.887
36.161,34.85
36.302,34.813
36.435,34.777
36.559,34.741
36.673,34.704
36.777,34.668
36.87,34.632
36.953,34.595
37.026,34.558
37.087,34.519
37.138,34.477
37.179,34.433
37.211,34.388
37.234,34.342
37.25,34.297
37.259,34.254
37.262,34.214
37.26,34.175
37.253,34.14
37.242,34.108
37.229,34.08
37.213,34.056
37.194,34.036
37.174,34.018
37.153,34.003
37.131,33.989
37.108,33.977
37.084,33.964
37.058,33.952
37.03,33.939
37.002,33.925
36.974,33.912
36.947,33.898
36.92,33.883
36.894,33.867
36.869,33.85
36.843,33.831
36.818,33.81
36.793,33.789
36.767,33.766
36.742,33.741
36.715,33.714
36.688,33.685
36.66,33.654
36.631,33.621
36.601,33.587
36.569,33.551
36.537,33.516
36.503,33.48
36.47,33.446
36.437,33.413
36.405,33.381
36.375,33.353
36.347,33.327
36.321,33.305
36.298,33.288
36.28,33.277
36.265,33.273
36.253,33.278
36.243,33.292
36.234,33.318
36.228,33.355
36.223,33.405
36.219,33.469
36.218,33.549
36.219,33.645
36.221,33.758
36.225,33.887
36.231,34.032
36.238,34.191
36.247,34.362
36.257,34.544
36.267,34.735
36.276,34.933
36.282,35.137
36.284,35.343
36.284,35.551
36.28,35.757
36.274,35.959
36.264,36.155
36.253,36.344
36.24,36.523
36.225,36.691
36.207,36.848
36.186,36.991
36.162,37.121
36.136,37.236
36.109,37.336
36.081,37.421
36.053,37.492
36.024,37.549
35.994,37.593
35.962,37.625
35.928,37.645
35.894,37.654
35.859,37.653
35.824,37.642
35.787,37.624
35.749,37.598
35.709,37.568
35.668,37.533
35.626,37.495
35.582,37.454
35.537,37.409
35.491,37.36
35.445,37.308
35.398,37.253
35.351,37.198
35.306,37.143
35.261,37.089
35.219,37.034
35.178,36.98
35.14,36.924
35.103,36.866
35.069,36.807
35.036,36.747
35.006,36.686
34.979,36.625
34.954,36.565
34.932,36.504
34.913,36.444
34.897,36.384
34.882,36.327
34.869,36.272
34.857,36.222
34.844,36.176
34.831,36.134
34.818,36.097
34.805,36.063
34.791,36.033
34.776,36.007
34.76,35.986
34.742,35.968
34.724,35.953
34.705,35.942
34.686,35.934
34.668,35.928
34.651,35.925
34.634,35.922
34.617,35.922
34.6,35.925
34.584,35.93
34.568,35.938
34.551,35.949
34.533,35.961
34.516,35.975
34.497,35.99
34.478,36.006
34.458,36.023
34.439,36.042
34.419,36.061
34.401,36.081
34.383,36.099
34.366,36.115
34.35,36.127
34.336,36.135
34.324,36.138
34.313,36.136
34.303,36.13
34.296,36.121
34.289,36.11
34.284,36.097
34.278,36.081
34.271,36.064
34.261,36.043
34.247,36.019
34.23,35.992
34.21,35.962
34.186,35.928
34.161,35.891
34.134,35.85
34.107,35.807
34.079,35.761
34.051,35.714
34.023,35.667
33.996,35.622
33.971,35.578
33.949,35.534
33.928,35.492
33.909,35.451
33.891,35.412
33.872,35.375
33.853,35.339
33.835,35.304
33.818,35.269
33.805,35.234
33.795,35.197
33.79,35.157
33.79,35.115
33.797,35.071
33.812,35.024
33.835,34.976
33.867,34.928
33.91,34.879
33.965,34.831
34.032,34.783
34.112,34.737
34.205,34.694
34.31,34.654
34.426,34.618
34.553,34.584
34.688,34.555
34.829,34.528
34.975,34.505
35.123,34.485
35.271,34.467
35.416,34.451
35.558,34.437
35.696,34.425
35.828,34.415
35.954,34.407
36.071,34.4
36.179,34.393
36.276,34.387
36.363,34.381
36.439,34.375
36.505,34.369
36.561,34.362
36.607,34.354
36.643,34.346
36.671,34.335
36.689,34.322
36.7,34.306
36.703,34.288
36.701,34.268
36.694,34.246
36.683,34.222
36.669,34.197
36.652,34.169
36.633,34.139
36.613,34.108
36.591,34.075
36.568,34.042
36.545,34.008
36.522,33.976
36.498,33.944
36.474,33.914
36.448,33.885
36.42,33.857
36.391,33.832
36.359,33.81
36.326,33.792
36.291,33.781
36.255,33.778
36.217,33.783
36.178,33.797
36.139,33.822
36.1,33.858
36.061,33.907
36.021,33.973
35.982,34.06
35.942,34.173
35.902,34.31
35.862,34.469
35.821,34.643
35.782,34.829
35.744,35.023
35.71,35.22
35.679,35.419
35.652,35.617
35.629,35.814
35.609,36.008
35.594,36.197
35.582,36.382
35.575,36.561
35.573,36.734
35.575,36.901
35.583,37.062
35.596,37.215
35.612,37.36
35.631,37.494
35.652,37.618
35.674,37.731
35.697,37.831
35.721,37.92
35.743,37.997
35.762,38.061
35.778,38.113
35.79,38.153
35.798,38.181
35.803,38.199
35.803,38.206
35.8,38.204
35.793,38.195
35.783,38.178
35.769,38.156
35.754,38.129
35.736,38.098
35.717,38.062
35.698,38.024
35.678,37.982
35.659,37.937
35.639,37.89
35.619,37.839
35.598,37.786
35.577,37.729
35.556,37.668
35.536,37.604
35.518,37.537
35.499,37.466
35.481,37.395
35.462,37.325
35.442,37.255
35.42,37.185
35.397,37.116
35.374,37.045
35.35,36.973
35.326,36.899
35.301,36.824
35.274,36.749
35.246,36.676
35.217,36.603
35.187,36.532
35.156,36.462
35.126,36.396
35.096,36.335
35.066,36.282
35.038,36.239
35.012,36.206
34.987,36.185
34.963,36.174
34.939,36.173
34.915,36.179
34.89,36.191
34.867,36.211
34.844,36.236
34.821,36.268
34.799,36.303
34.777,36.339
34.756,36.375
34.736,36.407
34.717,36.435
34.7,36.459
34.684,36.48
34.669,36.497
34.654,36.512
34.64,36.523
34.626,36.53
34.614,36.533
34.603,36.531
34.593,36.524
34.583,36.515
34.573,36.503
34.563,36.488
34.554,36.471
34.549,36.451
34.546,36.428
34.548,36.402
34.552,36.373
34.558,36.342
34.564,36.308
34.569,36.272
34.573,36.235
34.574,36.195
34.572,36.153
34.565,36.109
34.555,36.063
34.54,36.016
34.52,35.969
34.498,35.919
34.471,35.869
34.442,35.816
34.41,35.763
34.378,35.708
34.344,35.652
34.312,35.595
34.281,35.538
34.252,35.482
34.224,35.427
34.199,35.374
34.175,35.322
34.153,35.271
34.131,35.221
34.111,35.172
34.091,35.125
34.072,35.078
34.054,35.032
34.036,34.988
34.019,34.943
34.002,34.9
33.986,34.857
33.971,34.815
33.957,34.774
33.945,34.734
33.935,34.695
33.929,34.658
33.929,34.623
33.935,34.589
33.948,34.556
33.969,34.525
33.998,34.495
34.035,34.467
34.08,34.441
34.136,34.416
34.203,34.392
34.282,34.369
34.372,34.345
34.473,34.322
34.584,34.3
34.702,34.277
34.828,34.256
34.96,34.236
35.096,34.216
35.233,34.198
35.371,34.181
35.506,34.165
35.637,34.15
35.763,34.136
35.88,34.124
35.99,34.113
36.089,34.104
36.178,34.097
36.256,34.091
36.323,34.086
36.379,34.079
36.425,34.07
36.459,34.059
36.484,34.047
36.498,34.033
36.505,34.02
