Trial 3:3back,Trial 5:3back
33.183,32.905
33.228,32.915
33.29,32.941
33.371,32.984
33.472,33.049
33.594,33.136
33.738,33.248
33.904,33.386
34.091,33.551
34.296,33.744
34.519,33.963
34.756,34.208
35.003,34.476
35.258,34.766
35.517,35.074
35.775,35.397
36.029,35.731
36.275,36.07
36.51,36.413
36.73,36.753
36.933,37.088
37.117,37.413
37.28,37.724
37.421,38.018
37.539,38.293
37.634,38.546
37.708,38.774
37.76,38.977
37.792,39.153
37.807,39.301
37.804,39.422
37.786,39.516
37.755,39.583
37.712,39.625
37.66,39.644
37.598,39.641
37.53,39.62
37.456,39.582
37.378,39.529
37.296,39.465
37.212,39.389
37.127,39.306
37.041,39.216
36.955,39.122
36.87,39.024
36.787,38.926
36.705,38.827
36.625,38.729
36.547,38.633
36.472,38.538
36.399,38.445
36.329,38.353
36.262,38.264
36.197,38.176
36.134,38.092
36.072,38.009
36.012,37.93
35.952,37.852
35.892,37.776
35.83,37.702
35.768,37.629
35.705,37.556
35.641,37.482
35.578,37.407
35.515,37.331
35.453,37.255
35.393,37.178
35.337,37.102
35.284,37.027
35.235,36.953
35.191,36.882
35.152,36.815
35.118,36.751
35.089,36.693
35.065,36.64
35.047,36.592
35.033,36.55
35.025,36.515
35.021,36.485
35.021,36.462
35.025,36.444
35.033,36.433
35.043,36.426
35.056,36.424
35.069,36.427
35.083,36.433
35.098,36.442
35.111,36.453
35.123,36.466
35.133,36.479
35.141,36.494
35.147,36.508
35.149,36.523
35.147,36.536
35.142,36.547
35.134,36.557
35.123,36.564
35.108,36.567
35.091,36.567
35.071,36.563
35.048,36.554
35.023,36.54
34.995,36.521
34.965,36.496
34.932,36.465
34.896,36.428
34.858,36.386
34.818,36.339
34.776,36.287
34.732,36.231
34.687,36.17
34.641,36.106
34.593,36.038
34.545,35.968
34.496,35.897
34.448,35.824
34.401,35.75
34.355,35.676
34.31,35.601
34.267,35.526
34.225,35.452
34.185,35.379
34.146,35.308
34.107,35.238
34.069,35.169
34.032,35.103
33.996,35.038
33.959,34.975
33.923,34.913
33.887,34.851
33.852,34.79
33.816,34.729
33.781,34.669
33.745,34.608
33.71,34.547
33.674,34.488
33.639,34.429
33.603,34.372
33.568,34.318
33.534,34.265
33.502,34.215
33.47,34.167
33.441,34.121
33.413,34.078
33.387,34.037
33.361,33.998
33.337,33.961
33.313,33.926
33.29,33.892
33.266,33.859
33.243,33.827
33.219,33.797
33.195,33.768
33.171,33.74
33.147,33.713
33.122,33.687
33.096,33.662
33.07,33.637
33.043,33.613
33.016,33.589
32.988,33.565
32.959,33.541
32.929,33.517
32.898,33.493
32.866,33.469
32.834,33.444
32.802,33.419
32.771,33.395
32.741,33.37
32.715,33.345
32.691,33.32
32.673,33.294
32.661,33.268
32.656,33.242
32.66,33.215
32.676,33.189
32.705,33.163
32.749,33.138
32.812,33.114
32.895,33.092
33,33.071
33.128,33.055
33.279,33.044
33.453,33.04
33.648,33.046
33.864,33.064
34.097,33.096
34.345,33.144
34.603,33.212
34.87,33.302
35.139,33.415
35.407,33.553
35.671,33.718
35.927,33.91
36.172,34.129
36.403,34.373
36.618,34.641
36.814,34.93
36.99,35.237
37.147,35.557
37.282,35.886
37.397,36.222
37.492,36.558
37.568,36.892
37.625,37.218
37.665,37.532
37.689,37.83
37.698,38.109
37.694,38.365
37.679,38.597
37.654,38.804
37.619,38.983
37.577,39.135
37.529,39.26
37.476,39.358
37.418,39.431
37.358,39.479
37.295,39.504
37.23,39.508
37.165,39.493
37.1,39.46
37.034,39.412
36.969,39.351
36.904,39.278
36.84,39.196
36.777,39.106
36.714,39.01
36.653,38.909
36.591,38.805
36.53,38.699
36.469,38.592
36.408,38.484
36.347,38.376
36.285,38.269
36.223,38.164
36.16,38.06
36.097,37.958
36.034,37.857
35.972,37.759
35.911,37.662
35.851,37.566
35.794,37.471
35.74,37.377
35.69,37.284
35.643,37.191
35.6,37.099
35.561,37.007
35.526,36.916
35.496,36.827
35.47,36.739
35.448,36.655
35.431,36.573
35.417,36.495
35.406,36.42
35.397,36.351
35.391,36.287
35.386,36.229
35.383,36.177
35.38,36.133
35.378,36.095
35.377,36.064
35.376,36.04
35.374,36.022
35.372,36.011
35.369,36.005
35.364,36.004
35.357,36.009
35.349,36.019
35.337,36.033
35.323,36.052
35.306,36.073
35.285,36.098
35.261,36.124
35.234,36.152
35.203,36.18
35.17,36.207
35.134,36.233
35.096,36.256
35.057,36.275
35.016,36.291
34.974,36.302
34.931,36.308
34.886,36.308
34.84,36.302
34.794,36.29
34.747,36.271
34.701,36.246
34.657,36.215
34.614,36.178
34.573,36.136
34.533,36.09
34.496,36.039
34.459,35.985
34.424,35.928
34.39,35.869
34.357,35.808
34.325,35.745
34.294,35.68
34.264,35.615
34.236,35.548
34.208,35.481
34.18,35.413
34.154,35.344
34.128,35.275
34.103,35.205
34.078,35.134
34.053,35.063
34.029,34.992
34.005,34.921
33.98,34.85
33.957,34.781
33.933,34.712
33.911,34.645
33.888,34.579
33.867,34.516
33.846,34.454
33.827,34.396
33.809,34.34
33.791,34.286
33.775,34.236
33.759,34.187
33.743,34.141
33.728,34.097
33.712,34.054
33.696,34.012
33.681,33.972
33.665,33.933
33.649,33.895
33.634,33.858
33.618,33.822
33.603,33.787
33.588,33.752
33.572,33.718
33.557,33.686
33.541,33.653
33.525,33.621
33.508,33.59
33.491,33.559
33.474,33.528
33.455,33.499
33.436,33.47
33.417,33.442
33.397,33.415
33.377,33.389
33.357,33.366
33.338,33.343
33.321,33.323
33.305,33.303
33.292,33.284
33.283,33.265
33.279,33.247
33.283,33.228
33.295,33.209
33.318,33.189
33.355,33.168
33.407,33.147
33.475,33.125
33.561,33.102
33.666,33.079
33.79,33.058
33.933,33.041
34.095,33.028
34.273,33.024
34.467,33.03
34.673,33.047
34.889,33.08
35.112,33.131
35.338,33.201
35.564,33.294
35.787,33.412
36.003,33.556
36.21,33.728
36.404,33.926
36.585,34.152
36.749,34.405
36.895,34.681
37.022,34.98
37.129,35.297
37.218,35.629
37.287,35.971
37.338,36.318
37.372,36.665
37.39,37.008
37.392,37.341
37.382,37.659
37.359,37.96
37.325,38.239
37.282,38.494
37.231,38.723
37.175,38.923
37.115,39.094
37.052,39.236
36.987,39.349
36.921,39.435
36.854,39.495
36.787,39.529
36.721,39.541
36.656,39.531
36.592,39.5
36.531,39.452
36.472,39.387
36.415,39.31
36.361,39.221
36.309,39.122
36.26,39.016
36.213,38.903
36.167,38.786
36.123,38.665
36.079,38.542
36.035,38.417
35.991,38.292
35.946,38.166
35.9,38.041
35.853,37.918
35.805,37.796
35.758,37.677
35.711,37.56
35.664,37.444
35.617,37.331
35.572,37.219
35.528,37.109
35.486,37
35.447,36.893
35.412,36.787
35.38,36.682
35.352,36.578
35.328,36.476
35.309,36.375
35.295,36.278
35.285,36.184
35.279,36.095
35.277,36.012
35.279,35.934
35.282,35.863
35.289,35.799
35.297,35.742
35.307,35.693
35.318,35.651
35.331,35.618
35.344,35.593
35.357,35.576
35.37,35.567
35.382,35.566
35.392,35.572
35.4,35.584
35.406,35.6
35.409,35.621
35.409,35.644
35.405,35.67
35.398,35.698
35.386,35.726
35.372,35.754
35.353,35.781
35.332,35.807
35.307,35.832
35.279,35.856
35.247,35.877
35.211,35.896
35.173,35.912
35.133,35.923
35.091,35.93
35.048,35.932
35.003,35.928
34.959,35.918
34.913,35.903
34.868,35.882
34.823,35.855
34.778,35.823
34.734,35.786
34.69,35.743
34.648,35.695
34.605,35.643
34.563,35.586
34.522,35.524
34.481,35.46
34.442,35.393
34.403,35.323
34.366,35.252
34.33,35.179
34.294,35.105
34.259,35.031
34.225,34.956
34.191,34.882
34.158,34.808
34.126,34.735
34.094,34.663
34.064,34.592
34.034,34.522
34.006,34.453
33.978,34.386
33.952,34.32
33.926,34.256
33.9,34.194
33.874,34.132
33.848,34.072
33.822,34.013
33.796,33.954
33.771,33.896
33.747,33.839
33.724,33.783
33.703,33.728
33.682,33.675
33.663,33.624
33.646,33.574
33.631,33.526
33.617,33.481
33.605,33.438
33.594,33.398
33.584,33.361
33.575,33.326
33.566,33.293
33.557,33.262
33.549,33.232
33.54,33.202
33.531,33.174
33.523,33.146
33.514,33.118
33.505,33.092
33.496,33.065
33.486,33.04
33.476,33.014
33.465,32.989
33.453,32.964
33.44,32.938
33.428,32.912
33.417,32.884
33.408,32.856
33.404,32.827
33.407,32.798
33.42,32.77
33.443,32.743
33.479,32.716
33.53,32.691
33.598,32.667
33.684,32.643
33.788,32.619
33.91,32.598
34.05,32.577
34.207,32.56
34.38,32.545
34.566,32.535
34.763,32.532
34.968,32.536
35.179,32.551
35.391,32.581
35.603,32.626
35.81,32.692
36.011,32.779
36.201,32.891
36.38,33.029
36.544,33.195
36.691,33.39
36.822,33.613
36.933,33.864
37.026,34.14
37.1,34.439
37.156,34.757
37.194,35.09
37.215,35.435
37.222,35.788
37.214,36.142
37.195,36.495
37.165,36.84
37.127,37.173
37.082,37.491
37.03,37.789
36.974,38.064
36.915,38.314
36.852,38.536
36.788,38.728
36.722,38.889
36.655,39.018
36.588,39.116
36.521,39.183
36.455,39.222
36.39,39.233
36.327,39.221
36.265,39.187
36.205,39.134
36.148,39.065
36.092,38.981
36.038,38.886
35.987,38.78
35.936,38.666
35.887,38.545
35.838,38.418
35.79,38.286
35.742,38.151
35.694,38.015
35.645,37.878
35.596,37.742
35.547,37.608
35.498,37.477
35.45,37.35
35.402,37.226
35.356,37.106
35.312,36.991
35.269,36.879
35.229,36.77
35.192,36.664
35.158,36.561
35.128,36.459
35.102,36.359
35.081,36.261
35.063,36.166
35.049,36.072
35.038,35.981
35.032,35.892
35.029,35.806
35.03,35.724
35.034,35.646
35.041,35.573
35.05,35.505
35.062,35.443
35.074,35.388
35.087,35.339
35.1,35.298
35.113,35.264
35.124,35.237
35.134,35.218
35.143,35.206
35.149,35.202
35.153,35.205
35.155,35.214
35.155,35.229
35.152,35.249
35.146,35.272
35.138,35.299
35.127,35.328
35.112,35.359
35.095,35.391
35.075,35.424
35.053,35.456
35.028,35.487
35,35.514
34.97,35.538
34.938,35.558
34.904,35.572
34.868,35.581
34.83,35.585
34.791,35.582
34.751,35.572
34.71,35.556
34.668,35.534
34.625,35.507
34.582,35.474
34.539,35.436
34.497,35.395
34.456,35.35
34.416,35.301
34.377,35.249
34.339,35.194
34.303,35.136
34.268,35.076
34.234,35.013
34.2,34.948
34.167,34.882
34.134,34.814
34.103,34.744
34.072,34.674
34.041,34.602
34.012,34.53
33.984,34.457
33.956,34.383
33.93,34.308
33.904,34.234
33.88,34.159
33.857,34.084
33.834,34.009
33.812,33.933
33.79,33.858
33.768,33.784
33.745,33.71
33.722,33.639
33.698,33.569
33.674,33.501
33.649,33.436
33.624,33.373
33.597,33.313
33.57,33.255
33.541,33.199
33.512,33.145
33.483,33.094
33.453,33.044
33.424,32.996
33.394,32.95
33.365,32.906
33.338,32.864
33.313,32.824
33.292,32.787
33.275,32.754
33.265,32.723
33.262,32.694
33.268,32.669
33.287,32.647
33.318,32.627
33.365,32.609
33.428,32.593
33.508,32.58
33.606,32.567
33.722,32.555
33.857,32.544
34.009,32.533
34.177,32.522
34.361,32.51
34.556,32.499
34.762,32.487
34.975,32.475
35.193,32.464
35.411,32.454
35.628,32.446
35.84,32.44
36.045,32.44
36.239,32.448
36.42,32.466
36.587,32.497
36.738,32.546
36.871,32.616
36.987,32.708
37.084,32.827
37.162,32.973
37.223,33.148
37.266,33.354
37.294,33.589
37.306,33.853
37.305,34.144
37.291,34.46
37.267,34.797
37.234,35.153
37.192,35.523
37.145,35.901
37.092,36.284
37.035,36.667
36.976,37.044
36.915,37.411
36.852,37.763
36.79,38.097
36.729,38.409
36.669,38.697
36.61,38.958
36.554,39.19
36.499,39.393
36.445,39.565
36.393,39.708
36.343,39.82
36.293,39.903
36.245,39.958
36.197,39.987
36.149,39.993
36.102,39.977
36.054,39.941
36.007,39.89
35.959,39.824
35.911,39.746
35.863,39.658
35.814,39.562
35.765,39.459
35.717,39.351
35.669,39.239
35.621,39.124
35.575,39.008
35.53,38.89
35.489,38.773
35.451,38.657
35.416,38.54
35.386,38.424
35.361,38.309
35.341,38.193
35.325,38.077
35.314,37.959
35.307,37.84
35.303,37.72
35.303,37.598
35.305,37.474
35.31,37.348
35.317,37.221
35.325,37.094
35.335,36.966
35.346,36.84
35.357,36.714
35.368,36.591
35.379,36.47
35.388,36.354
35.396,36.243
35.403,36.139
35.408,36.043
35.41,35.956
35.41,35.877
35.408,35.808
35.402,35.749
35.393,35.699
35.38,35.658
35.364,35.626
35.344,35.601
35.321,35.584
35.295,35.574
35.267,35.568
35.236,35.568
35.204,35.572
35.17,35.578
35.136,35.588
35.1,35.6
35.063,35.613
35.025,35.627
34.986,35.642
34.946,35.657
34.906,35.671
34.864,35.685
34.822,35.697
34.78,35.706
34.738,35.712
34.695,35.715
34.654,35.714
34.613,35.709
34.573,35.699
34.535,35.684
34.498,35.664
34.463,35.639
34.43,35.609
34.399,35.573
34.37,35.531
34.343,35.483
34.318,35.43
34.293,35.371
34.27,35.308
34.247,35.24
34.225,35.168
34.203,35.094
34.18,35.018
34.158,34.94
34.136,34.861
34.114,34.783
34.092,34.706
34.07,34.63
34.049,34.556
34.028,34.483
34.007,34.413
33.987,34.344
33.967,34.277
33.947,34.211
33.927,34.146
33.908,34.082
33.888,34.02
33.867,33.958
33.844,33.897
33.821,33.837
33.797,33.778
33.771,33.72
33.745,33.664
33.718,33.61
33.69,33.557
33.663,33.506
33.637,33.458
33.611,33.41
33.588,33.365
33.568,33.323
33.553,33.282
33.544,33.244
33.544,33.208
33.555,33.175
33.579,33.146
33.619,33.12
33.677,33.097
33.754,33.078
33.85,33.063
33.967,33.05
34.105,33.041
34.263,33.035
34.44,33.031
34.635,33.029
34.846,33.029
35.07,33.029
35.305,33.03
35.546,33.031
35.792,33.032
36.037,33.031
36.278,33.028
36.512,33.024
36.734,33.02
36.943,33.016
37.136,33.014
37.31,33.018
37.465,33.029
37.599,33.05
37.713,33.085
37.806,33.137
37.878,33.209
37.932,33.305
37.967,33.428
37.986,33.58
37.99,33.761
37.982,33.974
37.962,34.218
37.934,34.492
37.899,34.793
37.858,35.118
37.812,35.465
37.763,35.827
37.712,36.201
37.659,36.581
37.605,36.962
37.55,37.339
37.495,37.707
37.441,38.062
37.388,38.398
37.335,38.713
37.285,39.002
37.236,39.263
37.189,39.493
37.144,39.692
37.1,39.858
37.058,39.991
37.016,40.093
36.974,40.163
36.932,40.204
36.89,40.216
36.847,40.203
36.802,40.166
36.755,40.109
36.706,40.034
36.656,39.943
36.603,39.841
36.549,39.728
36.495,39.609
36.44,39.485
36.385,39.358
36.331,39.229
36.279,39.1
36.23,38.972
36.184,38.845
36.142,38.721
36.105,38.6
36.072,38.482
36.044,38.367
36.021,38.254
36.003,38.145
35.99,38.036
35.981,37.929
35.977,37.824
35.976,37.718
35.979,37.614
35.984,37.509
35.993,37.403
36.002,37.298
36.013,37.193
36.024,37.089
36.034,36.986
36.043,36.885
36.051,36.788
36.056,36.694
36.06,36.605
36.061,36.523
36.06,36.447
36.056,36.38
36.049,36.322
36.038,36.272
36.025,36.232
36.009,36.201
35.99,36.179
35.968,36.164
35.943,36.157
35.916,36.156
35.888,36.161
35.857,36.171
35.826,36.185
35.793,36.203
35.759,36.223
35.724,36.245
35.688,36.269
35.652,36.292
35.615,36.315
35.579,36.336
35.542,36.356
35.506,36.373
35.469,36.386
35.431,36.396
35.393,36.401
35.355,36.401
35.316,36.396
35.276,36.386
35.236,36.371
35.196,36.35
35.157,36.325
35.117,36.296
35.078,36.261
35.039,36.221
35.001,36.175
34.964,36.122
34.928,36.063
34.893,35.997
34.859,35.925
34.825,35.848
34.793,35.766
34.762,35.681
34.732,35.594
34.704,35.505
34.676,35.416
34.649,35.327
34.622,35.237
34.596,35.148
34.571,35.061
34.546,34.976
34.521,34.894
34.496,34.815
34.472,34.74
34.448,34.668
34.425,34.599
34.401,34.534
34.377,34.471
34.353,34.41
34.329,34.35
34.304,34.291
34.279,34.232
34.253,34.174
34.228,34.116
34.203,34.058
34.177,34
34.153,33.943
34.131,33.885
34.111,33.828
34.095,33.772
34.084,33.716
34.081,33.661
34.086,33.609
34.104,33.558
34.134,33.509
34.181,33.463
34.244,33.42
34.325,33.379
34.425,33.341
34.544,33.305
34.681,33.271
34.836,33.239
35.007,33.208
35.192,33.179
35.388,33.152
35.593,33.127
35.804,33.101
36.016,33.076
36.226,33.05
36.431,33.023
36.628,32.994
36.814,32.964
36.988,32.933
37.146,32.902
37.288,32.872
37.411,32.843
37.515,32.816
37.6,32.793
37.666,32.775
37.712,32.764
37.74,32.763
37.753,32.775
37.75,32.801
37.734,32.845
37.708,32.91
37.671,32.998
37.627,33.111
37.575,33.251
37.518,33.42
37.457,33.617
37.392,33.842
37.325,34.093
37.257,34.368
37.189,34.665
37.121,34.979
37.055,35.308
36.99,35.647
36.929,35.992
36.87,36.339
36.815,36.682
36.763,37.019
36.715,37.345
36.67,37.657
36.629,37.951
36.589,38.223
36.551,38.473
36.514,38.696
36.477,38.891
36.439,39.057
36.4,39.193
36.36,39.298
36.318,39.374
36.275,39.42
36.23,39.439
36.185,39.431
36.137,39.401
36.089,39.348
36.041,39.277
35.993,39.189
35.946,39.088
35.902,38.976
35.861,38.855
35.823,38.728
35.788,38.597
35.757,38.464
35.729,38.33
35.704,38.198
35.683,38.067
35.665,37.939
35.65,37.814
35.639,37.694
35.63,37.577
35.624,37.464
35.621,37.354
35.621,37.246
35.622,37.14
35.624,37.033
35.627,36.927
35.63,36.819
35.633,36.71
35.637,36.6
35.639,36.489
35.642,36.377
35.644,36.264
35.645,36.152
35.645,36.041
35.644,35.931
35.641,35.824
35.636,35.722
35.629,35.625
35.62,35.535
35.608,35.453
35.594,35.378
35.577,35.312
35.558,35.254
35.536,35.205
35.512,35.163
35.483,35.13
35.452,35.105
35.416,35.088
35.377,35.078
35.335,35.075
35.289,35.078
35.24,35.086
35.188,35.098
35.133,35.112
35.076,35.129
35.016,35.145
34.955,35.162
34.893,35.178
34.83,35.191
34.768,35.203
34.707,35.211
34.648,35.216
34.591,35.217
34.537,35.214
34.485,35.206
34.437,35.194
34.393,35.176
34.352,35.154
34.314,35.127
34.279,35.094
34.246,35.057
34.216,35.016
34.188,34.97
34.163,34.92
34.14,34.866
34.119,34.809
34.1,34.748
34.084,34.685
34.07,34.62
34.057,34.554
34.045,34.488
34.033,34.422
34.02,34.357
34.007,34.292
33.992,34.229
33.976,34.168
33.958,34.108
33.938,34.049
33.916,33.992
33.893,33.937
33.869,33.883
33.844,33.83
33.819,33.778
33.796,33.728
33.776,33.679
33.76,33.63
33.75,33.582
33.748,33.534
33.756,33.486
33.775,33.438
33.808,33.39
33.857,33.341
33.922,33.293
34.006,33.244
34.107,33.196
34.226,33.149
34.363,33.102
34.517,33.055
34.686,33.009
34.867,32.964
35.059,32.921
35.258,32.878
35.463,32.838
35.669,32.798
35.875,32.76
36.077,32.724
36.271,32.69
36.456,32.658
36.63,32.628
36.789,32.599
36.934,32.571
37.063,32.545
37.176,32.52
37.272,32.495
37.351,32.472
37.413,32.449
37.458,32.427
37.488,32.405
37.503,32.385
37.505,32.366
37.494,32.348
37.471,32.334
37.438,32.323
37.397,32.317
37.349,32.319
37.295,32.329
37.237,32.351
37.177,32.386
37.117,32.437
37.057,32.506
36.999,32.594
36.943,32.704
36.889,32.838
36.838,32.995
36.79,33.175
36.745,33.379
36.702,33.605
36.661,33.852
36.621,34.116
36.582,34.396
36.544,34.688
36.506,34.988
36.468,35.294
36.428,35.601
36.388,35.904
36.345,36.201
36.302,36.488
36.257,36.76
36.211,37.015
36.164,37.251
36.117,37.465
36.071,37.655
36.025,37.821
35.98,37.961
35.938,38.076
35.899,38.166
35.863,38.232
35.832,38.276
35.804,38.297
35.781,38.3
35.763,38.284
35.749,38.253
35.739,38.209
35.733,38.153
35.731,38.087
35.732,38.013
35.737,37.933
35.745,37.848
35.755,37.758
35.767,37.664
35.78,37.569
35.793,37.471
35.806,37.373
35.818,37.274
35.829,37.176
35.837,37.079
35.843,36.982
35.846,36.887
35.845,36.794
35.841,36.701
35.834,36.61
35.824,36.519
35.81,36.429
35.793,36.339
35.773,36.249
35.75,36.16
35.724,36.069
35.695,35.979
35.664,35.888
35.63,35.799
35.595,35.711
35.557,35.626
35.518,35.545
35.478,35.469
35.437,35.399
35.395,35.335
35.354,35.278
35.312,35.228
35.271,35.186
35.231,35.151
35.19,35.123
35.15,35.102
35.111,35.088
35.071,35.079
35.032,35.077
34.993,35.078
34.955,35.085
34.917,35.095
34.879,35.107
34.841,35.122
34.803,35.139
34.764,35.157
34.725,35.174
34.686,35.191
34.647,35.207
34.608,35.221
34.569,35.233
34.531,35.241
34.494,35.247
34.457,35.249
34.422,35.248
34.388,35.244
34.355,35.236
34.322,35.225
34.29,35.21
34.259,35.19
34.228,35.167
34.198,35.14
34.169,35.109
34.139,35.073
34.11,35.034
34.08,34.992
34.051,34.946
34.023,34.897
33.996,34.845
33.969,34.79
33.943,34.732
33.919,34.671
33.897,34.608
33.877,34.543
33.86,34.478
33.847,34.412
33.839,34.347
33.837,34.283
33.842,34.219
33.856,34.156
33.881,34.094
33.917,34.034
33.968,33.974
34.033,33.917
34.115,33.861
34.214,33.807
34.329,33.755
34.462,33.705
34.612,33.657
34.776,33.611
34.954,33.566
35.143,33.523
35.341,33.48
35.546,33.439
35.755,33.398
35.964,33.357
36.171,33.318
36.373,33.278
36.566,33.239
36.748,33.2
36.917,33.161
37.07,33.123
37.206,33.085
37.325,33.047
37.424,33.01
37.504,32.975
37.565,32.94
37.609,32.906
37.635,32.873
37.646,32.843
37.642,32.813
37.626,32.785
37.598,32.758
37.56,32.732
37.513,32.708
37.46,32.684
37.402,32.662
37.339,32.641
37.272,32.622
37.204,32.605
37.134,32.591
37.063,32.581
36.992,32.578
36.921,32.582
36.852,32.596
36.783,32.622
36.716,32.662
36.65,32.718
36.586,32.792
36.524,32.886
36.462,33.001
36.402,33.138
36.343,33.297
36.283,33.477
36.224,33.677
36.164,33.895
36.104,34.13
36.043,34.378
35.982,34.637
35.922,34.903
35.861,35.173
35.8,35.443
35.739,35.711
35.679,35.971
35.62,36.222
35.562,36.46
35.508,36.682
35.456,36.886
35.408,37.07
35.365,37.233
35.327,37.373
35.293,37.492
35.264,37.589
35.24,37.664
35.221,37.718
35.207,37.753
35.196,37.77
35.187,37.77
35.182,37.754
35.177,37.725
35.174,37.683
35.171,37.631
35.169,37.569
35.167,37.501
35.164,37.426
35.161,37.347
35.157,37.265
35.151,37.18
35.144,37.093
35.135,37.005
35.124,36.915
35.11,36.824
35.095,36.733
35.077,36.642
35.058,36.551
35.037,36.46
35.015,36.369
34.991,36.279
34.965,36.188
34.939,36.097
34.911,36.007
34.883,35.917
34.853,35.828
34.822,35.74
34.789,35.655
34.756,35.571
34.722,35.49
34.687,35.412
34.65,35.338
34.613,35.268
34.574,35.203
34.534,35.143
34.493,35.089
34.45,35.043
34.407,35.003
34.364,34.97
34.321,34.945
34.278,34.926
34.236,34.913
34.194,34.905
34.153,34.904
34.114,34.907
34.075,34.915
34.038,34.927
34.002,34.944
33.967,34.965
33.933,34.988
33.9,35.014
33.868,35.04
33.837,35.067
33.806,35.094
33.776,35.118
33.745,35.14
33.716,35.16
33.687,35.176
33.659,35.189
33.631,35.198
33.604,35.204
33.578,35.206
33.552,35.206
33.526,35.201
33.5,35.193
33.473,35.181
33.447,35.163
33.42,35.142
33.392,35.115
33.364,35.084
33.337,35.049
33.309,35.01
33.283,34.967
33.257,34.922
33.233,34.873
33.209,34.823
33.188,34.771
33.169,34.719
33.153,34.666
33.142,34.613
33.135,34.561
33.136,34.509
33.145,34.458
33.164,34.407
33.194,34.358
33.238,34.31
33.296,34.263
33.37,34.218
33.46,34.174
33.567,34.132
33.69,34.091
33.828,34.051
33.98,34.014
34.144,33.978
34.319,33.943
34.502,33.911
34.69,33.881
34.879,33.853
35.066,33.826
35.249,33.802
35.425,33.779
35.592,33.757
35.747,33.736
35.888,33.717
36.014,33.699
36.124,33.684
36.217,33.671
36.294,33.661
36.354,33.652
36.399,33.646
36.429,33.641
36.445,33.637
36.449,33.634
36.443,33.631
36.428,33.628
36.405,33.624
36.374,33.62
36.338,33.615
36.297,33.609
36.252,33.603
36.205,33.596
36.156,33.587
36.107,33.579
36.057,33.569
36.008,33.559
35.96,33.548
35.913,33.536
35.868,33.524
35.824,33.513
35.783,33.504
35.743,33.498
35.704,33.497
35.666,33.504
35.629,33.519
35.591,33.547
35.554,33.59
35.516,33.649
35.476,33.728
35.435,33.828
35.392,33.951
35.346,34.096
35.298,34.263
35.248,34.453
35.197,34.663
35.144,34.892
35.091,35.137
35.039,35.396
34.987,35.664
34.938,35.94
34.891,36.218
34.846,36.496
34.805,36.769
34.768,37.034
34.734,37.287
34.705,37.525
34.679,37.746
34.657,37.947
34.639,38.127
34.624,38.284
34.612,38.418
34.604,38.529
34.598,38.618
34.595,38.685
34.592,38.731
34.591,38.758
34.59,38.767
34.589,38.76
34.589,38.739
34.587,38.704
34.585,38.659
34.582,38.605
34.577,38.544
34.572,38.477
34.565,38.406
34.555,38.331
34.544,38.255
34.53,38.177
34.513,38.099
34.494,38.021
34.473,37.945
34.45,37.871
34.425,37.798
34.4,37.729
34.373,37.662
34.347,37.597
34.319,37.534
34.291,37.472
34.263,37.412
34.234,37.354
34.206,37.296
34.177,37.239
34.147,37.183
34.118,37.128
34.088,37.073
34.058,37.019
34.029,36.966
34,36.913
33.972,36.862
33.944,36.812
33.918,36.765
33.892,36.722
33.867,36.682
33.842,36.647
33.819,36.618
33.795,36.594
33.771,36.575
33.748,36.562
33.724,36.555
33.7,36.552
33.676,36.554
33.653,36.56
33.631,36.569
33.609,36.58
33.588,36.593
33.569,36.607
33.55,36.622
33.532,36.637
33.515,36.652
33.499,36.665
33.483,36.677
33.469,36.686
33.456,36.693
33.442,36.696
33.429,36.697
33.416,36.695
33.403,36.69
33.389,36.683
33.374,36.673
33.358,36.659
33.342,36.644
33.324,36.625
33.306,36.604
33.288,36.58
33.27,36.554
33.252,36.524
33.236,36.491
33.221,36.455
33.209,36.415
33.201,36.373
33.198,36.327
33.201,36.278
33.212,36.227
33.234,36.173
33.267,36.117
33.314,36.06
33.375,36.002
33.452,35.943
33.545,35.884
33.655,35.824
33.78,35.765
33.92,35.706
34.072,35.648
34.236,35.591
34.409,35.534
34.587,35.478
34.768,35.423
34.949,35.369
35.127,35.316
35.299,35.265
35.463,35.215
35.616,35.167
35.757,35.119
35.884,35.073
35.995,35.026
36.091,34.98
36.171,34.933
36.234,34.886
36.282,34.839
36.315,34.792
36.334,34.746
36.34,34.7
36.334,34.655
36.318,34.612
36.293,34.571
36.262,34.531
36.225,34.493
36.183,34.457
36.138,34.423
36.092,34.391
36.044,34.362
35.996,34.336
35.949,34.314
35.902,34.295
35.857,34.28
35.814,34.268
35.772,34.26
35.732,34.254
35.695,34.25
35.659,34.247
35.624,34.244
35.59,34.242
35.558,34.239
35.525,34.235
35.493,34.231
35.462,34.227
35.431,34.225
35.4,34.227
35.369,34.234
35.339,34.249
35.309,34.274
35.28,34.313
35.251,34.367
35.223,34.438
35.195,34.528
35.168,34.639
35.141,34.771
35.114,34.924
35.089,35.097
35.065,35.288
35.042,35.497
35.021,35.719
35.001,35.953
34.984,36.195
34.968,36.443
34.954,36.692
34.942,36.94
34.932,37.183
34.923,37.419
34.916,37.644
34.91,37.856
34.906,38.052
34.903,38.232
34.902,38.394
34.902,38.538
34.904,38.661
34.906,38.765
34.908,38.849
34.911,38.914
34.913,38.96
34.915,38.988
34.915,39
34.915,38.995
34.913,38.975
34.91,38.942
34.905,38.898
34.898,38.843
34.89,38.781
34.879,38.711
34.867,38.637
34.853,38.558
34.837,38.476
34.819,38.393
34.799,38.309
34.778,38.225
34.755,38.141
34.732,38.059
34.708,37.978
34.684,37.9
34.659,37.824
34.634,37.752
34.609,37.682
34.584,37.615
34.558,37.549
34.532,37.485
34.505,37.422
34.476,37.36
34.446,37.298
34.414,37.235
34.381,37.172
34.347,37.109
34.311,37.046
34.276,36.982
34.24,36.918
34.205,36.855
34.171,36.794
34.139,36.735
34.108,36.68
34.079,36.628
34.052,36.581
34.028,36.539
34.005,36.502
33.985,36.471
33.966,36.446
33.948,36.425
33.932,36.41
33.916,36.399
33.9,36.393
33.884,36.389
33.868,36.389
33.852,36.39
33.835,36.393
33.817,36.397
33.799,36.401
33.78,36.405
33.76,36.409
33.741,36.412
33.721,36.414
33.702,36.415
33.683,36.414
33.664,36.412
33.645,36.407
33.625,36.399
33.605,36.388
33.586,36.375
33.567,36.358
33.551,36.338
33.537,36.315
33.528,36.289
33.525,36.26
33.531,36.23
33.546,36.198
33.573,36.165
33.614,36.13
33.67,36.094
33.742,36.057
33.832,36.019
33.938,35.979
34.062,35.938
34.203,35.895
34.36,35.852
34.531,35.808
34.715,35.763
34.908,35.719
35.109,35.675
35.314,35.632
35.52,35.59
35.723,35.549
35.921,35.509
36.111,35.47
36.289,35.432
36.455,35.395
36.606,35.358
36.74,35.322
36.858,35.286
36.958,35.251
37.04,35.217
37.106,35.183
37.154,35.149
37.187,35.116
37.205,35.084
37.21,35.052
37.204,35.02
37.187,34.989
37.161,34.958
37.128,34.929
37.089,34.901
37.045,34.874
36.997,34.848
36.946,34.822
36.893,34.797
36.839,34.773
36.784,34.749
36.729,34.727
36.675,34.706
36.621,34.687
36.568,34.668
36.517,34.65
36.467,34.633
36.419,34.616
36.372,34.599
36.327,34.582
36.283,34.565
36.241,34.548
36.2,34.53
36.16,34.512
36.12,34.493
36.08,34.474
36.041,34.455
36.003,34.437
35.964,34.419
35.926,34.402
35.889,34.387
35.852,34.375
35.817,34.367
35.783,34.364
35.749,34.367
35.718,34.378
35.688,34.398
35.66,34.428
35.634,34.472
35.612,34.531
35.592,34.607
35.577,34.702
35.564,34.816
35.556,34.949
35.55,35.101
35.547,35.271
35.547,35.457
35.549,35.658
35.553,35.871
35.559,36.093
35.567,36.322
35.575,36.555
35.584,36.787
35.593,37.016
35.603,37.239
35.611,37.452
35.619,37.654
35.626,37.842
35.63,38.013
35.633,38.168
35.633,38.304
35.631,38.42
35.628,38.517
35.622,38.594
35.614,38.651
35.604,38.689
35.592,38.71
35.578,38.713
35.563,38.701
35.546,38.675
35.528,38.637
35.508,38.588
35.486,38.53
35.463,38.466
35.438,38.396
35.412,38.322
35.386,38.246
35.358,38.167
35.33,38.087
35.301,38.007
35.273,37.927
35.244,37.847
35.216,37.768
35.188,37.69
35.16,37.613
35.132,37.537
35.105,37.461
35.078,37.387
35.051,37.314
35.024,37.24
34.998,37.167
34.973,37.093
34.948,37.019
34.924,36.943
34.901,36.867
34.878,36.791
34.856,36.715
34.834,36.639
34.812,36.564
34.79,36.491
34.767,36.42
34.745,36.352
34.722,36.288
34.698,36.228
34.675,36.173
34.651,36.124
34.626,36.081
34.602,36.044
34.577,36.013
34.552,35.989
34.527,35.97
34.502,35.957
34.477,35.95
34.452,35.947
34.426,35.948
34.401,35.953
34.376,35.96
34.35,35.97
34.325,35.98
34.299,35.991
34.274,36.001
34.249,36.011
34.224,36.019
34.201,36.025
34.179,36.028
34.158,36.029
34.141,36.027
34.127,36.021
34.12,36.012
34.12,35.999
34.129,35.982
34.151,35.961
34.186,35.935
34.237,35.906
34.304,35.874
34.389,35.838
34.492,35.8
34.613,35.759
34.75,35.715
34.903,35.668
35.069,35.62
35.246,35.569
35.431,35.516
35.622,35.462
35.816,35.407
36.009,35.352
36.199,35.296
36.383,35.24
36.558,35.183
36.721,35.127
36.871,35.071
37.007,35.015
37.127,34.96
37.231,34.906
37.319,34.854
37.391,34.803
37.446,34.753
37.487,34.706
37.514,34.661
37.529,34.618
37.532,34.577
37.524,34.537
37.507,34.498
37.483,34.461
37.452,34.423
37.415,34.386
37.374,34.349
37.33,34.313
37.283,34.277
37.234,34.241
37.185,34.206
37.135,34.17
37.085,34.135
37.036,34.1
36.988,34.066
36.942,34.032
36.897,34
36.854,33.968
36.811,33.937
36.77,33.907
36.729,33.878
36.688,33.85
36.646,33.823
36.603,33.796
36.559,33.77
36.513,33.745
36.465,33.719
36.415,33.694
36.362,33.668
36.309,33.642
36.254,33.616
36.198,33.589
36.142,33.562
36.086,33.534
36.031,33.508
35.979,33.482
35.928,33.458
35.881,33.436
35.836,33.419
35.796,33.405
35.759,33.398
35.727,33.398
35.699,33.407
35.675,33.427
35.655,33.46
35.639,33.508
35.626,33.573
35.617,33.655
35.61,33.756
35.607,33.876
35.606,34.014
35.607,34.171
35.609,34.345
35.613,34.535
35.619,34.738
35.625,34.953
35.631,35.176
35.636,35.405
35.64,35.636
35.643,35.866
35.642,36.091
35.639,36.309
35.633,36.516
35.622,36.71
35.608,36.889
35.59,37.049
35.569,37.191
35.545,37.312
35.519,37.412
35.49,37.491
35.461,37.55
35.431,37.59
35.401,37.611
35.37,37.616
35.34,37.606
35.31,37.583
35.282,37.549
35.255,37.505
35.229,37.455
35.204,37.4
35.181,37.34
35.16,37.277
35.139,37.212
35.118,37.146
35.097,37.08
35.075,37.014
35.052,36.949
35.027,36.884
35.001,36.82
34.975,36.758
34.949,36.697
34.923,36.637
34.897,36.579
34.873,36.52
34.849,36.463
34.827,36.405
34.806,36.347
34.787,36.289
34.768,36.23
34.75,36.17
34.733,36.109
34.715,36.046
34.697,35.982
34.678,35.917
34.659,35.851
34.638,35.786
34.616,35.722
34.594,35.659
34.571,35.598
34.547,35.54
34.523,35.486
34.499,35.436
34.475,35.391
34.452,35.353
34.429,35.321
34.407,35.295
34.386,35.276
34.366,35.264
34.347,35.258
34.329,35.257
34.311,35.262
34.294,35.271
34.278,35.284
34.262,35.3
34.247,35.317
34.232,35.336
34.216,35.355
34.201,35.373
34.186,35.389
34.171,35.403
34.156,35.414
34.144,35.421
34.136,35.424
34.132,35.423
34.136,35.419
34.15,35.41
34.176,35.398
34.216,35.381
34.271,35.362
34.344,35.339
34.434,35.312
34.543,35.282
34.668,35.25
34.81,35.216
34.965,35.181
35.131,35.144
35.307,35.107
35.49,35.07
35.675,35.033
35.862,34.995
36.045,34.957
36.223,34.919
36.393,34.881
36.553,34.843
36.7,34.805
36.832,34.767
36.949,34.728
37.049,34.689
37.133,34.649
37.199,34.61
37.247,34.57
37.279,34.531
37.295,34.493
37.296,34.455
37.284,34.419
37.26,34.383
37.225,34.348
37.182,34.312
37.132,34.276
37.076,34.24
37.017,34.203
36.955,34.167
36.892,34.131
36.829,34.095
36.766,34.061
36.703,34.028
36.643,33.996
36.584,33.963
36.528,33.931
36.474,33.897
36.423,33.863
36.375,33.828
36.329,33.793
36.286,33.756
36.245,33.719
36.206,33.682
36.168,33.644
36.132,33.606
36.096,33.568
36.061,33.53
36.025,33.493
35.989,33.456
35.952,33.42
35.913,33.385
35.873,33.349
35.831,33.314
35.788,33.279
35.745,33.243
35.7,33.208
35.655,33.173
35.61,33.139
35.565,33.106
35.522,33.074
35.48,33.043
35.44,33.014
35.403,32.987
35.37,32.963
35.341,32.943
35.316,32.928
35.295,32.921
35.279,32.922
35.265,32.934
35.255,32.959
35.247,33
35.242,33.058
35.237,33.136
35.234,33.233
35.232,33.351
35.23,33.491
35.228,33.651
35.227,33.83
35.226,34.027
35.225,34.239
35.224,34.464
35.223,34.7
35.221,34.943
35.218,35.19
35.214,35.436
35.209,35.68
35.202,35.917
35.192,36.144
35.181,36.36
35.167,36.56
35.151,36.745
35.133,36.912
35.114,37.06
35.092,37.189
35.068,37.297
35.043,37.385
35.016,37.455
34.987,37.506
34.957,37.541
34.925,37.559
34.892,37.563
34.857,37.554
34.821,37.533
34.783,37.502
34.744,37.461
34.704,37.414
34.661,37.362
34.617,37.305
34.572,37.246
34.526,37.184
34.479,37.123
34.433,37.061
34.388,37.002
34.345,36.945
34.304,36.89
34.266,36.839
34.23,36.791
34.197,36.747
34.165,36.705
34.136,36.667
34.108,36.63
34.083,36.594
34.06,36.558
34.039,36.522
34.02,36.486
34.003,36.449
33.988,36.411
33.973,36.373
33.958,36.333
33.943,36.292
33.927,36.25
33.911,36.208
33.895,36.167
33.878,36.126
33.86,36.086
33.841,36.047
33.821,36.01
33.8,35.975
33.779,35.942
33.756,35.912
33.733,35.885
33.709,35.862
33.684,35.842
33.66,35.826
33.637,35.814
33.615,35.806
33.596,35.799
33.581,35.796
33.572,35.793
33.57,35.792
33.577,35.791
33.595,35.789
33.625,35.786
33.669,35.781
33.728,35.775
33.802,35.768
33.892,35.759
33.998,35.749
34.119,35.738
34.253,35.726
34.401,35.713
34.559,35.699
34.725,35.684
34.897,35.668
35.071,35.651
35.245,35.632
35.415,35.612
35.58,35.59
35.735,35.567
35.881,35.542
36.014,35.515
36.134,35.486
36.24,35.454
36.332,35.421
36.41,35.385
36.472,35.347
36.52,35.306
36.552,35.264
36.571,35.22
36.578,35.174
36.572,35.127
36.557,35.08
36.532,35.034
36.499,34.987
36.46,34.942
36.416,34.898
36.369,34.856
36.319,34.815
36.268,34.777
36.217,34.741
36.166,34.707
36.117,34.676
36.07,34.647
36.024,34.619
35.981,34.594
35.94,34.57
35.902,34.547
35.865,34.524
35.83,34.502
35.796,34.48
35.763,34.457
35.73,34.434
35.697,34.411
35.663,34.389
35.629,34.366
35.593,34.343
35.556,34.321
35.518,34.298
35.478,34.276
35.437,34.253
35.395,34.231
35.353,34.207
35.31,34.184
35.267,34.161
35.225,34.137
35.185,34.113
35.146,34.089
35.111,34.066
35.079,34.043
35.05,34.021
35.025,33.999
35.004,33.977
34.986,33.956
34.971,33.936
34.959,33.916
34.949,33.897
34.942,33.878
34.938,33.86
34.935,33.843
34.935,33.828
34.935,33.816
34.937,33.807
34.939,33.803
34.943,33.805
34.946,33.814
34.95,33.834
34.953,33.866
34.955,33.913
34.957,33.976
34.957,34.057
34.956,34.157
34.954,34.277
34.949,34.418
34.943,34.578
34.934,34.756
34.923,34.951
34.91,35.16
34.895,35.38
34.878,35.609
34.859,35.843
34.839,36.078
34.817,36.309
34.794,36.535
34.769,36.75
34.744,36.952
34.717,37.138
34.69,37.306
34.663,37.454
34.635,37.582
34.608,37.689
34.581,37.775
34.554,37.841
34.529,37.888
34.505,37.917
34.482,37.93
34.461,37.927
34.441,37.912
34.423,37.885
34.406,37.847
34.39,37.801
34.376,37.747
34.363,37.688
34.352,37.624
34.342,37.556
34.333,37.487
34.325,37.416
34.318,37.346
34.312,37.275
34.306,37.206
34.299,37.139
34.293,37.073
34.286,37.01
34.279,36.949
34.271,36.891
34.263,36.835
34.254,36.78
34.245,36.728
34.235,36.676
34.225,36.626
34.213,36.577
34.201,36.528
34.187,36.48
34.172,36.433
34.156,36.385
34.139,36.337
34.123,36.288
34.106,36.239
34.09,36.189
34.075,36.14
34.062,36.091
34.052,36.042
34.045,35.995
34.044,35.95
34.048,35.908
34.06,35.869
34.08,35.835
34.111,35.804
34.155,35.779
34.212,35.758
34.285,35.741
34.373,35.729
34.478,35.72
34.6,35.714
34.737,35.711
34.891,35.709
35.058,35.709
35.237,35.71
35.425,35.712
35.621,35.714
35.82,35.716
36.02,35.719
36.217,35.721
36.409,35.722
36.593,35.722
36.766,35.718
36.926,35.712
37.073,35.702
37.205,35.688
37.321,35.671
37.422,35.65
37.507,35.626
37.577,35.598
37.633,35.568
37.676,35.534
37.707,35.498
37.728,35.46
37.741,35.42
37.745,35.379
37.742,35.336
37.733,35.293
37.719,35.248
37.702,35.203
37.683,35.156
37.662,35.108
37.64,35.059
37.617,35.01
37.593,34.96
37.569,34.909
37.543,34.859
37.516,34.808
37.488,34.758
37.458,34.709
37.426,34.66
37.39,34.612
37.352,34.566
37.311,34.52
37.267,34.476
37.22,34.433
37.17,34.392
37.117,34.351
37.062,34.312
37.005,34.274
36.947,34.237
36.887,34.2
36.827,34.165
36.767,34.131
36.707,34.097
36.649,34.065
36.593,34.033
36.539,34.002
36.489,33.973
36.442,33.945
36.399,33.917
36.36,33.891
36.325,33.866
36.295,33.843
36.27,33.82
36.249,33.799
36.233,33.778
36.222,33.759
36.214,33.74
36.21,33.722
36.208,33.704
36.208,33.686
36.211,33.668
36.215,33.651
36.219,33.634
36.224,33.617
36.228,33.6
36.232,33.583
36.235,33.565
36.236,33.548
36.235,33.531
36.231,33.515
36.226,33.5
36.219,33.484
36.209,33.47
36.199,33.457
36.186,33.446
36.171,33.437
36.155,33.433
36.136,33.433
36.115,33.44
36.092,33.455
36.066,33.48
36.039,33.519
36.01,33.571
35.979,33.64
35.947,33.726
35.912,33.83
35.877,33.952
35.84,34.093
35.804,34.252
35.767,34.426
35.731,34.615
35.695,34.815
35.66,35.025
35.626,35.241
35.593,35.46
35.561,35.679
35.53,35.896
35.5,36.106
35.472,36.306
35.444,36.494
35.416,36.668
35.389,36.825
35.362,36.965
35.334,37.086
35.307,37.188
35.281,37.271
35.254,37.334
35.226,37.378
35.199,37.405
35.172,37.416
35.144,37.412
35.117,37.396
35.089,37.369
35.06,37.332
35.031,37.288
35.003,37.237
34.974,37.181
34.946,37.122
34.917,37.061
34.889,37
34.86,36.938
34.831,36.877
34.802,36.816
34.772,36.756
34.742,36.698
34.713,36.641
34.685,36.586
34.658,36.533
34.635,36.482
34.615,36.433
34.6,36.385
34.592,36.338
34.59,36.292
34.598,36.247
34.616,36.201
34.646,36.154
34.69,36.107
34.749,36.059
34.825,36.009
34.917,35.959
35.027,35.907
35.153,35.854
35.294,35.8
35.45,35.746
35.618,35.69
35.796,35.635
35.982,35.581
36.172,35.529
36.364,35.478
36.556,35.43
36.744,35.385
36.925,35.343
37.097,35.307
37.258,35.275
37.405,35.247
37.538,35.225
37.656,35.208
37.757,35.195
37.842,35.187
37.911,35.183
37.963,35.184
38,35.187
38.023,35.193
38.033,35.2
38.031,35.208
38.018,35.214
37.998,35.219
37.97,35.223
37.938,35.224
37.902,35.223
37.865,35.22
37.826,35.214
37.789,35.205
37.752,35.193
37.717,35.179
37.682,35.162
37.649,35.142
37.616,35.119
37.583,35.094
37.549,35.066
37.514,35.035
37.479,35.001
37.441,34.964
37.403,34.924
37.364,34.882
37.323,34.839
37.282,34.794
37.239,34.748
37.197,34.701
37.153,34.653
37.109,34.605
37.064,34.555
37.018,34.504
36.971,34.454
36.923,34.404
36.875,34.354
36.827,34.305
36.779,34.256
36.733,34.208
36.688,34.162
36.646,34.117
36.607,34.074
36.571,34.033
36.539,33.994
36.511,33.956
36.487,33.919
36.468,33.883
36.453,33.849
36.442,33.815
36.434,33.782
36.429,33.749
36.426,33.716
36.425,33.683
36.424,33.651
36.423,33.619
36.421,33.589
36.419,33.559
36.417,33.531
36.413,33.503
36.408,33.476
36.401,33.45
36.393,33.424
36.384,33.398
36.373,33.374
36.36,33.35
36.345,33.326
36.328,33.303
36.308,33.28
36.287,33.256
36.263,33.233
36.237,33.21
36.208,33.186
36.178,33.162
36.146,33.138
36.112,33.114
36.077,33.09
36.041,33.067
36.006,33.046
35.97,33.025
35.937,33.006
35.905,32.988
35.876,32.971
35.849,32.955
35.825,32.942
35.802,32.931
35.782,32.925
35.762,32.924
35.743,32.93
35.724,32.946
35.704,32.974
35.682,33.014
35.658,33.07
35.633,33.142
35.606,33.231
35.577,33.338
35.546,33.462
35.514,33.604
35.481,33.76
35.448,33.93
35.415,34.112
35.383,34.303
35.353,34.501
35.323,34.701
35.296,34.902
35.27,35.1
35.246,35.292
35.224,35.476
35.202,35.649
35.181,35.81
35.16,35.956
35.139,36.087
35.118,36.2
35.097,36.296
35.076,36.375
35.055,36.437
35.035,36.482
35.014,36.512
34.995,36.527
34.977,36.53
34.962,36.521
34.95,36.501
34.944,36.473
34.944,36.436
34.954,36.393
34.976,36.344
35.01,36.291
35.058,36.235
35.122,36.176
35.201,36.116
35.295,36.055
35.404,35.995
35.526,35.936
35.661,35.879
35.805,35.824
35.957,35.772
36.114,35.722
36.274,35.675
36.433,35.63
36.589,35.587
36.74,35.546
36.882,35.506
37.014,35.466
37.134,35.427
37.241,35.387
37.333,35.345
37.411,35.303
37.474,35.259
37.522,35.213
37.555,35.165
37.576,35.117
37.583,35.067
37.58,35.018
37.567,34.97
37.545,34.923
37.516,34.879
37.481,34.837
37.441,34.799
37.398,34.764
37.351,34.734
37.303,34.709
37.254,34.687
37.203,34.67
37.151,34.657
37.099,34.647
37.047,34.64
36.994,34.637
36.941,34.636
36.888,34.637
36.836,34.64
36.783,34.644
36.73,34.65
36.678,34.656
36.625,34.662
36.572,34.669
36.518,34.675
36.464,34.681
36.409,34.686
36.352,34.689
36.294,34.691
36.235,34.69
36.176,34.686
36.117,34.68
36.06,34.67
36.004,34.657
35.95,34.641
35.899,34.622
35.851,34.6
35.807,34.575
35.766,34.547
35.73,34.517
35.697,34.485
35.668,34.451
35.643,34.416
35.622,34.378
35.604,34.339
35.591,34.299
35.581,34.258
35.575,34.216
35.572,34.175
35.571,34.133
35.574,34.091
35.578,34.048
35.584,34.006
35.592,33.964
35.599,33.922
35.607,33.882
35.615,33.843
35.621,33.805
35.625,33.769
35.628,33.734
35.628,33.699
35.626,33.666
35.621,33.634
35.613,33.603
35.602,33.572
35.588,33.542
35.57,33.513
35.55,33.484
35.526,33.456
35.5,33.43
35.472,33.405
35.442,33.381
35.411,33.358
35.379,33.335
35.345,33.313
35.312,33.292
35.279,33.27
35.245,33.249
35.211,33.227
35.177,33.205
35.144,33.184
35.111,33.162
35.078,33.14
35.047,33.119
35.018,33.099
34.99,33.078
34.964,33.059
34.939,33.039
34.916,33.02
34.894,33.001
34.873,32.982
34.852,32.963
34.832,32.946
34.812,32.928
34.791,32.912
34.769,32.897
34.746,32.882
34.722,32.867
34.698,32.853
34.673,32.84
34.649,32.826
34.625,32.814
34.601,32.804
34.577,32.796
34.553,32.791
34.528,32.792
34.504,32.799
34.478,32.814
34.452,32.839
34.425,32.877
34.398,32.929
34.372,32.998
34.347,33.083
34.324,33.188
34.304,33.31
34.288,33.452
34.276,33.61
34.271,33.785
34.273,33.974
34.283,34.174
34.303,34.382
34.334,34.595
34.378,34.81
34.435,35.023
34.506,35.231
34.591,35.431
34.69,35.621
34.801,35.8
34.924,35.964
35.056,36.114
35.196,36.247
35.341,36.365
35.489,36.467
35.638,36.552
35.784,36.621
35.926,36.675
36.061,36.713
36.187,36.736
36.302,36.745
36.405,36.743
36.495,36.731
36.57,36.709
36.63,36.681
36.676,36.647
36.706,36.608
36.724,36.566
36.729,36.52
36.723,36.474
36.708,36.426
36.685,36.379
36.656,36.333
36.622,36.289
36.584,36.245
36.543,36.204
36.5,36.164
36.455,36.125
36.41,36.089
36.363,36.054
36.316,36.022
36.268,35.99
36.221,35.96
36.174,35.931
36.127,35.903
36.081,35.874
36.036,35.844
35.991,35.813
35.947,35.78
35.904,35.745
35.862,35.708
35.819,35.669
35.777,35.63
35.735,35.59
35.692,35.549
35.649,35.509
35.606,35.47
35.563,35.432
35.52,35.396
35.477,35.363
35.436,35.332
35.396,35.306
35.358,35.283
35.321,35.263
35.285,35.246
35.251,35.233
35.219,35.222
35.189,35.213
35.162,35.206
35.137,35.202
35.116,35.2
35.099,35.199
35.084,35.201
35.073,35.203
35.066,35.207
35.06,35.212
35.058,35.217
35.058,35.221
35.059,35.225
35.062,35.228
35.067,35.229
35.072,35.229
35.078,35.227
35.083,35.224
35.089,35.22
35.093,35.214
35.096,35.206
35.097,35.196
35.096,35.185
35.091,35.171
35.083,35.155
35.071,35.135
35.056,35.113
35.037,35.089
35.016,35.061
34.991,35.032
34.964,35.001
34.934,34.969
34.903,34.935
34.871,34.899
34.838,34.863
34.804,34.825
34.77,34.786
34.735,34.746
34.7,34.705
34.665,34.664
34.63,34.622
34.594,34.581
34.559,34.54
34.525,34.5
34.491,34.46
34.459,34.421
34.428,34.382
34.398,34.344
34.37,34.308
34.343,34.272
34.317,34.237
34.293,34.204
34.269,34.171
34.245,34.139
34.221,34.108
34.197,34.078
34.171,34.048
34.145,34.019
34.117,33.991
34.089,33.963
34.059,33.936
34.03,33.91
34.001,33.886
33.972,33.862
33.943,33.84
33.915,33.819
33.887,33.801
33.86,33.784
33.833,33.768
33.806,33.755
33.779,33.743
33.754,33.732
33.728,33.723
33.703,33.714
33.679,33.705
33.655,33.696
33.633,33.686
33.613,33.673
33.597,33.659
33.586,33.643
33.582,33.624
33.584,33.604
33.596,33.582
33.619,33.559
33.653,33.534
33.7,33.507
33.761,33.48
33.835,33.452
33.922,33.425
34.021,33.399
34.132,33.374
34.252,33.351
34.38,33.332
34.512,33.317
34.648,33.308
34.784,33.305
34.917,33.309
35.047,33.322
35.17,33.346
35.284,33.382
35.389,33.431
35.481,33.494
35.561,33.572
35.628,33.667
35.68,33.778
35.72,33.905
35.746,34.047
35.759,34.204
35.761,34.375
35.753,34.557
35.735,34.749
35.709,34.947
35.676,35.15
35.638,35.355
35.595,35.557
35.549,35.754
35.501,35.944
35.451,36.124
35.401,36.293
35.351,36.447
35.303,36.588
35.256,36.713
35.211,36.822
35.167,36.916
35.125,36.994
35.083,37.056
35.042,37.105
35.001,37.139
34.961,37.162
34.92,37.175
34.88,37.177
34.84,37.172
34.799,37.159
34.757,37.141
34.716,37.117
34.674,37.089
34.632,37.057
34.59,37.022
34.55,36.984
34.51,36.945
34.471,36.905
34.434,36.864
34.399,36.823
34.366,36.782
34.335,36.742
34.306,36.704
34.28,36.667
34.257,36.633
34.236,36.6
34.218,36.568
34.203,36.538
34.191,36.507
34.182,36.477
34.176,36.445
34.173,36.413
34.174,36.378
34.177,36.343
34.183,36.305
34.191,36.267
34.199,36.227
34.209,36.185
34.218,36.142
34.226,36.099
34.234,36.056
34.239,36.012
34.244,35.969
34.246,35.927
34.247,35.886
34.245,35.847
34.241,35.811
34.234,35.777
34.225,35.747
34.212,35.72
34.197,35.696
34.18,35.676
34.16,35.659
34.139,35.646
34.115,35.636
34.09,35.629
34.064,35.623
34.037,35.62
34.01,35.618
33.982,35.617
33.954,35.617
33.926,35.617
33.898,35.616
33.87,35.614
33.843,35.611
33.816,35.606
33.791,35.6
33.766,35.592
33.742,35.583
33.719,35.572
33.697,35.56
33.676,35.546
33.655,35.531
33.635,35.515
33.614,35.496
33.593,35.477
33.571,35.455
33.55,35.431
33.527,35.405
33.505,35.377
33.482,35.347
33.458,35.314
33.435,35.279
33.411,35.242
33.388,35.203
33.365,35.162
33.344,35.119
33.323,35.075
33.302,35.031
33.282,34.986
33.262,34.941
33.242,34.896
33.222,34.852
33.202,34.807
33.183,34.764
33.163,34.721
33.143,34.68
33.122,34.641
33.102,34.604
33.082,34.569
33.063,34.536
33.047,34.506
33.034,34.476
33.027,34.448
33.026,34.421
33.033,34.395
33.049,34.369
33.075,34.344
33.113,34.32
33.163,34.297
33.225,34.274
33.299,34.251
33.385,34.228
33.484,34.206
33.593,34.183
33.71,34.161
33.835,34.139
33.965,34.118
34.096,34.098
34.228,34.079
34.358,34.061
34.485,34.044
34.605,34.028
34.718,34.013
34.822,33.999
34.915,33.985
34.996,33.97
35.065,33.955
35.12,33.939
35.162,33.923
35.191,33.905
35.209,33.885
35.215,33.865
35.212,33.843
35.201,33.82
35.182,33.796
35.157,33.772
35.128,33.748
35.095,33.725
35.06,33.702
35.021,33.68
34.982,33.66
34.94,33.64
34.899,33.621
34.857,33.604
34.815,33.587
34.773,33.572
34.732,33.558
34.691,33.545
34.652,33.535
34.613,33.528
34.576,33.525
34.54,33.528
34.505,33.539
34.472,33.56
34.439,33.593
34.407,33.639
34.376,33.7
34.345,33.777
34.314,33.871
34.284,33.982
34.254,34.11
34.224,34.255
34.195,34.414
34.166,34.586
34.139,34.769
34.112,34.96
34.088,35.156
34.065,35.356
34.045,35.555
34.027,35.751
34.011,35.94
33.998,36.119
33.988,36.287
33.98,36.442
33.975,36.581
33.972,36.704
33.973,36.811
33.975,36.9
33.98,36.972
33.987,37.029
33.996,37.07
34.006,37.096
34.017,37.109
34.028,37.11
34.039,37.1
34.049,37.08
34.058,37.053
34.066,37.019
34.071,36.98
34.074,36.937
34.074,36.891
34.072,36.843
34.068,36.793
34.061,36.743
34.053,36.693
34.043,36.643
34.032,36.594
34.02,36.544
34.007,36.496
33.993,36.449
33.978,36.403
33.962,36.359
33.944,36.317
33.926,36.277
33.907,36.237
33.887,36.199
33.867,36.162
33.846,36.124
33.826,36.086
33.806,36.048
33.787,36.009
33.767,35.968
33.747,35.927
33.728,35.884
33.709,35.841
33.691,35.797
33.673,35.754
33.656,35.711
33.64,35.67
33.624,35.63
33.609,35.592
33.594,35.558
33.579,35.526
33.565,35.498
33.55,35.473
33.536,35.453
33.523,35.437
33.51,35.425
33.499,35.417
33.488,35.412
33.479,35.41
33.471,35.411
33.463,35.414
33.455,35.418
33.447,35.423
33.438,35.429
33.428,35.435
33.416,35.441
33.404,35.446
33.391,35.451
33.377,35.455
33.363,35.457
33.348,35.458
33.333,35.457
33.318,35.455
33.303,35.449
33.29,35.442
33.279,35.432
33.271,35.419
33.267,35.404
33.269,35.386
33.276,35.366
33.292,35.343
33.316,35.318
33.351,35.291
33.397,35.261
33.455,35.229
33.527,35.194
33.612,35.158
33.712,35.121
33.825,35.083
33.951,35.044
34.089,35.004
34.235,34.964
34.389,34.923
34.546,34.882
34.706,34.84
34.865,34.798
35.02,34.756
35.169,34.714
35.31,34.673
35.441,34.631
35.561,34.59
35.669,34.55
35.764,34.511
35.845,34.473
35.912,34.436
35.965,34.401
36.005,34.366
36.032,34.333
36.048,34.3
36.052,34.269
36.047,34.239
36.034,34.21
36.014,34.181
35.989,34.154
35.958,34.128
35.925,34.103
35.888,34.079
35.85,34.055
35.811,34.033
35.772,34.011
35.733,33.989
35.696,33.968
35.66,33.946
35.626,33.925
35.594,33.904
35.565,33.883
35.539,33.864
35.514,33.845
35.491,33.828
35.469,33.812
35.448,33.796
35.428,33.782
35.407,33.768
35.387,33.755
35.366,33.742
35.344,33.728
35.32,33.713
35.296,33.698
35.27,33.682
35.243,33.666
35.216,33.65
35.187,33.633
35.158,33.615
35.129,33.597
35.101,33.578
35.073,33.559
35.046,33.54
35.021,33.52
34.998,33.5
34.977,33.479
34.959,33.458
34.944,33.437
34.932,33.417
34.924,33.399
34.919,33.382
34.917,33.367
34.918,33.357
34.922,33.353
34.929,33.356
34.938,33.369
34.948,33.394
34.96,33.433
34.973,33.488
34.985,33.56
34.997,33.652
35.009,33.763
35.02,33.892
35.03,34.04
35.038,34.205
35.045,34.385
35.05,34.577
35.052,34.779
35.052,34.988
35.051,35.201
35.047,35.414
35.041,35.625
35.033,35.829
35.023,36.025
35.01,36.21
34.996,36.383
34.98,36.541
34.963,36.686
34.945,36.815
34.927,36.929
34.908,37.028
34.888,37.111
34.868,37.179
34.847,37.232
34.825,37.271
34.804,37.297
34.782,37.31
34.761,37.312
34.74,37.304
34.718,37.287
34.697,37.263
34.676,37.233
34.655,37.197
34.634,37.158
34.614,37.115
34.593,37.07
34.573,37.024
34.554,36.977
34.536,36.93
34.518,36.884
34.501,36.839
34.483,36.796
34.467,36.755
34.45,36.716
34.433,36.679
34.417,36.644
34.4,36.61
34.383,36.578
34.366,36.546
34.349,36.515
34.331,36.484
34.313,36.452
34.295,36.42
34.277,36.387
34.26,36.352
34.243,36.315
34.226,36.277
34.211,36.238
34.196,36.197
34.184,36.156
34.175,36.115
34.169,36.075
34.168,36.036
34.174,35.998
34.186,35.961
34.208,35.926
34.241,35.892
34.285,35.861
34.342,35.832
34.413,35.805
34.498,35.783
34.597,35.764
34.708,35.749
34.83,35.739
34.963,35.733
35.103,35.73
35.249,35.731
35.398,35.736
35.548,35.743
35.696,35.752
35.841,35.762
35.979,35.773
36.109,35.784
36.229,35.794
36.338,35.803
36.436,35.811
36.52,35.816
36.59,35.818
36.646,35.818
36.689,35.814
36.718,35.808
36.734,35.799
36.739,35.787
36.733,35.774
36.719,35.758
36.698,35.74
36.67,35.72
36.638,35.698
36.602,35.673
36.564,35.647
36.524,35.619
36.484,35.589
36.443,35.559
36.404,35.527
36.365,35.494
36.327,35.461
36.29,35.427
36.255,35.392
36.22,35.357
36.187,35.321
36.154,35.284
36.123,35.247
36.092,35.209
36.063,35.171
36.034,35.132
36.005,35.094
35.976,35.055
35.947,35.016
35.919,34.978
35.891,34.94
35.863,34.902
35.835,34.865
35.808,34.829
35.78,34.794
35.753,34.76
35.726,34.728
35.7,34.698
35.674,34.67
35.649,34.644
35.626,34.619
35.605,34.597
35.585,34.576
35.566,34.555
35.55,34.536
35.535,34.517
35.523,34.498
35.512,34.479
35.504,34.46
35.499,34.44
35.495,34.421
35.494,34.401
35.495,34.381
35.499,34.362
35.508,34.343
35.522,34.324
35.541,34.305
35.565,34.287
35.593,34.268
35.623,34.249
35.655,34.231
35.687,34.212
35.719,34.194
35.749,34.176
35.777,34.158
35.8,34.14
35.819,34.122
35.832,34.105
35.841,34.088
35.844,34.071
35.841,34.055
35.832,34.039
35.819,34.022
35.8,34.005
35.778,33.988
35.753,33.97
35.726,33.952
35.696,33.933
35.667,33.913
35.636,33.894
35.607,33.874
35.578,33.857
35.552,33.841
35.527,33.829
35.506,33.821
35.489,33.821
35.476,33.829
35.466,33.848
35.46,33.879
35.458,33.924
35.458,33.985
35.459,34.062
35.46,34.156
35.461,34.266
35.461,34.394
35.458,34.537
35.453,34.696
35.444,34.868
35.432,35.051
35.416,35.242
35.397,35.439
35.376,35.64
35.353,35.84
35.327,36.038
35.301,36.231
35.274,36.416
35.246,36.591
35.218,36.754
35.191,36.903
35.163,37.037
35.136,37.154
35.109,37.254
35.083,37.336
35.056,37.402
35.031,37.452
35.007,37.486
34.984,37.508
34.964,37.517
34.947,37.516
34.933,37.505
34.924,37.485
34.92,37.457
34.923,37.423
34.934,37.384
34.955,37.339
34.986,37.291
35.028,37.24
35.083,37.188
35.15,37.135
35.231,37.082
35.325,37.031
35.431,36.981
35.548,36.933
35.675,36.886
35.81,36.841
35.951,36.798
36.097,36.756
36.244,36.714
36.391,36.672
36.535,36.63
36.674,36.588
36.806,36.544
36.929,36.499
37.041,36.453
37.141,36.405
37.227,36.356
37.3,36.307
37.358,36.257
37.401,36.207
37.431,36.157
37.448,36.109
37.452,36.062
37.445,36.017
37.429,35.975
37.404,35.935
37.371,35.898
37.333,35.864
37.29,35.834
37.244,35.808
37.195,35.786
37.145,35.768
37.095,35.755
37.045,35.745
36.996,35.739
36.948,35.736
36.902,35.737
36.857,35.74
36.814,35.746
36.772,35.754
36.732,35.764
36.693,35.775
36.654,35.786
36.616,35.797
36.578,35.807
36.539,35.816
36.5,35.823
36.46,35.828
36.418,35.83
36.375,35.83
36.332,35.826
36.288,35.82
36.244,35.812
36.201,35.801
36.157,35.787
36.114,35.77
36.072,35.75
36.032,35.727
35.992,35.702
35.955,35.675
35.92,35.647
35.888,35.617
35.859,35.587
35.833,35.556
35.81,35.524
35.79,35.492
35.774,35.459
35.76,35.425
35.75,35.39
35.742,35.354
35.737,35.316
35.734,35.277
35.732,35.237
35.731,35.195
35.732,35.153
35.733,35.109
35.735,35.065
35.737,35.02
35.739,34.976
35.741,34.932
35.741,34.889
35.739,34.847
35.734,34.805
35.727,34.764
35.716,34.724
35.702,34.686
35.685,34.649
35.665,34.614
35.642,34.58
35.617,34.547
35.589,34.515
35.559,34.483
35.528,34.453
35.495,34.423
35.46,34.394
35.426,34.367
35.391,34.34
35.356,34.314
35.322,34.289
35.288,34.264
35.255,34.24
35.222,34.217
35.189,34.195
35.156,34.174
35.123,34.153
35.089,34.133
35.055,34.113
35.022,34.092
34.988,34.071
34.956,34.048
34.924,34.025
34.893,34.002
34.864,33.978
34.835,33.955
34.808,33.932
34.782,33.911
34.756,33.891
34.731,33.871
34.705,33.853
34.68,33.834
34.655,33.816
34.629,33.796
34.604,33.776
34.579,33.754
34.553,33.732
34.528,33.708
34.501,33.684
34.475,33.659
34.449,33.633
34.424,33.607
34.399,33.581
34.374,33.556
34.35,33.533
34.328,33.514
34.306,33.499
34.285,33.489
34.264,33.487
34.243,33.494
34.224,33.512
34.205,33.542
34.188,33.585
34.172,33.643
34.16,33.717
34.153,33.807
34.151,33.914
34.157,34.037
34.172,34.175
34.198,34.327
34.236,34.492
34.289,34.666
34.356,34.848
34.44,35.035
34.538,35.225
34.651,35.414
34.776,35.602
34.912,35.784
35.058,35.959
35.209,36.124
35.364,36.278
35.521,36.419
35.675,36.546
35.826,36.658
35.97,36.754
36.106,36.835
36.232,36.902
36.346,36.954
36.446,36.993
36.532,37.019
36.603,37.033
36.66,37.037
36.702,37.031
36.729,37.017
36.744,36.995
36.748,36.965
36.741,36.93
36.724,36.89
36.7,36.845
36.669,36.797
36.632,36.746
36.591,36.693
36.546,36.639
36.498,36.586
36.449,36.533
36.398,36.481
36.347,36.43
36.295,36.381
36.244,36.333
36.193,36.286
36.143,36.241
36.094,36.196
36.047,36.153
36.002,36.111
35.958,36.07
35.915,36.028
35.873,35.987
35.832,35.946
35.79,35.904
35.748,35.861
35.705,35.817
35.663,35.773
35.62,35.728
35.578,35.682
35.536,35.635
35.494,35.588
35.454,35.542
35.414,35.497
35.376,35.454
35.339,35.414
35.303,35.377
35.271,35.344
35.241,35.314
35.214,35.288
35.19,35.265
35.17,35.246
35.153,35.23
35.139,35.216
35.127,35.206
35.119,35.197
35.112,35.191
35.109,35.186
35.107,35.184
35.107,35.184
35.109,35.185
35.113,35.188
35.117,35.191
35.122,35.195
35.128,35.198
35.132,35.201
35.136,35.203
35.138,35.203
35.139,35.201
35.137,35.197
35.133,35.189
35.126,35.177
35.118,35.162
35.107,35.143
35.094,35.121
35.079,35.096
35.062,35.068
35.043,35.038
35.022,35.005
34.999,34.971
34.974,34.936
34.947,34.9
34.918,34.863
34.888,34.824
34.856,34.785
34.824,34.746
34.792,34.706
34.759,34.665
34.728,34.625
34.696,34.583
34.666,34.542
34.635,34.5
34.604,34.459
34.574,34.418
34.545,34.378
34.516,34.339
34.488,34.301
34.462,34.265
34.437,34.23
34.413,34.197
34.391,34.166
34.37,34.137
34.349,34.109
34.329,34.082
34.31,34.055
34.29,34.028
34.27,34.002
34.25,33.976
34.229,33.95
34.207,33.924
34.185,33.899
34.162,33.873
34.138,33.848
34.113,33.822
34.087,33.797
34.061,33.772
34.034,33.748
34.006,33.723
33.978,33.7
33.95,33.677
33.923,33.656
33.897,33.635
33.872,33.615
33.848,33.597
33.825,33.579
33.803,33.561
33.783,33.544
33.765,33.528
33.749,33.512
33.736,33.496
33.726,33.48
33.719,33.465
33.717,33.449
33.719,33.434
33.729,33.418
33.746,33.403
33.773,33.386
33.812,33.37
33.863,33.353
33.927,33.335
34.006,33.318
34.099,33.3
34.206,33.283
34.327,33.266
34.46,33.249
34.605,33.232
34.759,33.215
34.921,33.197
35.087,33.18
35.257,33.162
35.426,33.145
35.593,33.129
35.754,33.115
35.908,33.104
36.053,33.097
36.185,33.097
36.304,33.104
36.408,33.121
36.497,33.148
36.57,33.187
36.628,33.24
36.671,33.308
36.7,33.391
36.716,33.488
36.72,33.601
36.713,33.727
36.697,33.866
36.674,34.015
36.645,34.174
36.611,34.339
36.574,34.508
36.534,34.679
36.493,34.848
36.449,35.014
36.404,35.173
36.358,35.325
36.312,35.468
36.264,35.599
36.216,35.719
36.168,35.825
36.119,35.918
36.071,35.996
36.022,36.061
35.974,36.111
35.928,36.149
35.884,36.173
35.842,36.186
35.802,36.187
35.764,36.179
35.728,36.162
35.693,36.138
35.66,36.107
35.628,36.071
35.598,36.031
35.57,35.988
35.542,35.944
35.517,35.898
35.493,35.852
35.47,35.805
35.449,35.758
35.431,35.711
35.414,35.664
35.401,35.618
35.389,35.572
35.38,35.527
35.374,35.484
35.37,35.441
35.369,35.4
35.369,35.36
35.371,35.32
35.374,35.28
35.378,35.239
35.383,35.198
35.388,35.155
35.394,35.11
35.399,35.064
35.404,35.017
35.409,34.97
35.413,34.923
35.415,34.876
35.417,34.831
35.418,34.788
35.417,34.749
35.415,34.712
35.411,34.679
35.405,34.65
35.398,34.624
35.39,34.602
35.381,34.583
35.37,34.568
35.358,34.555
35.344,34.546
35.329,34.541
35.313,34.538
35.296,34.539
35.277,34.543
35.257,34.548
35.235,34.556
35.212,34.566
35.187,34.576
35.16,34.588
35.131,34.601
35.1,34.613
35.068,34.625
35.034,34.636
34.999,34.645
34.962,34.653
34.924,34.658
34.886,34.662
34.846,34.662
34.806,34.66
34.765,34.654
34.724,34.645
34.684,34.632
34.644,34.615
34.605,34.595
34.567,34.573
34.53,34.549
34.495,34.524
34.461,34.497
34.428,34.471
34.397,34.444
34.368,34.417
34.339,34.39
34.311,34.363
34.284,34.337
34.259,34.311
34.234,34.284
34.21,34.257
34.187,34.229
34.166,34.201
34.146,34.173
34.127,34.145
34.11,34.117
34.095,34.089
34.081,34.062
34.07,34.035
34.06,34.007
34.053,33.98
34.048,33.954
34.045,33.928
34.045,33.904
34.047,33.882
34.052,33.86
34.06,33.838
34.072,33.817
34.087,33.796
34.107,33.775
34.133,33.754
34.167,33.734
34.21,33.716
34.263,33.698
34.327,33.682
34.405,33.667
34.496,33.653
34.6,33.64
34.716,33.628
34.844,33.617
34.983,33.607
35.13,33.597
35.283,33.587
35.441,33.577
35.6,33.567
35.758,33.556
35.914,33.544
36.064,33.53
36.207,33.516
36.34,33.5
36.463,33.484
36.574,33.467
36.672,33.45
36.756,33.432
36.826,33.414
36.882,33.396
36.923,33.376
36.952,33.356
36.968,33.336
36.972,33.316
36.966,33.296
36.952,33.276
36.93,33.258
36.903,33.241
36.871,33.226
36.835,33.212
36.798,33.201
36.758,33.194
36.717,33.189
36.676,33.19
36.634,33.196
36.592,33.209
36.551,33.23
36.509,33.261
36.468,33.302
36.427,33.356
36.387,33.422
36.347,33.503
36.307,33.596
36.268,33.703
36.229,33.822
36.19,33.953
36.15,34.095
36.11,34.246
36.069,34.403
36.028,34.566
35.985,34.731
35.941,34.897
35.896,35.06
35.85,35.219
35.803,35.372
35.757,35.516
35.711,35.651
35.666,35.775
35.623,35.887
35.582,35.987
35.543,36.074
35.507,36.148
35.474,36.209
35.444,36.257
35.417,36.293
35.392,36.317
35.371,36.33
35.353,36.332
35.338,36.326
35.326,36.311
35.318,36.289
35.313,36.262
35.31,36.231
35.31,36.197
35.312,36.161
35.316,36.124
35.322,36.085
35.329,36.046
35.337,36.006
35.345,35.966
35.353,35.925
35.36,35.885
35.366,35.844
35.369,35.804
35.37,35.764
35.368,35.724
35.363,35.685
35.354,35.646
35.342,35.607
35.326,35.568
35.306,35.527
35.283,35.486
35.256,35.443
35.226,35.399
35.194,35.353
35.159,35.308
35.124,35.263
35.088,35.219
35.052,35.178
35.017,35.138
34.983,35.102
34.951,35.069
34.921,35.04
34.893,35.016
34.865,34.996
34.839,34.981
34.813,34.97
34.787,34.963
34.761,34.959
34.734,34.958
34.707,34.96
34.68,34.963
34.653,34.969
34.627,34.975
34.6,34.984
34.574,34.994
34.547,35.004
34.521,35.015
34.494,35.027
34.468,35.039
34.441,35.051
34.413,35.063
34.386,35.074
34.358,35.085
34.33,35.096
34.302,35.106
34.275,35.115
34.249,35.124
34.224,35.132
34.2,35.138
34.176,35.143
34.154,35.146
34.131,35.147
34.11,35.145
34.088,35.141
34.068,35.134
34.048,35.123
34.029,35.109
34.012,35.091
33.996,35.071
33.983,35.048
33.974,35.022
33.97,34.994
33.972,34.964
33.983,34.933
34.003,34.9
34.034,34.867
34.077,34.833
34.133,34.799
34.202,34.765
34.285,34.73
34.383,34.696
34.494,34.662
34.618,34.628
34.754,34.595
34.9,34.564
35.053,34.534
35.212,34.506
35.372,34.481
35.533,34.457
35.69,34.435
35.843,34.414
35.987,34.395
36.121,34.375
36.244,34.357
36.353,34.339
36.448,34.322
36.527,34.305
36.591,34.288
36.639,34.272
36.673,34.257
36.693,34.241
36.701,34.226
36.697,34.21
36.684,34.195
36.663,34.179
36.636,34.164
36.604,34.15
36.568,34.137
36.53,34.124
36.491,34.112
36.45,34.101
36.41,34.09
36.369,34.079
36.329,34.067
36.29,34.056
36.253,34.044
36.216,34.032
36.181,34.02
36.147,34.008
36.114,33.996
36.082,33.983
36.052,33.969
36.022,33.955
35.993,33.941
35.965,33.926
35.937,33.91
35.909,33.894
35.882,33.877
35.854,33.859
35.827,33.841
35.799,33.822
35.771,33.803
35.744,33.784
35.717,33.764
35.69,33.746
35.666,33.728
35.644,33.713
35.626,33.7
35.61,33.691
35.597,33.688
35.587,33.691
35.579,33.702
35.573,33.724
35.569,33.757
35.566,33.803
35.564,33.863
35.562,33.937
35.562,34.027
35.561,34.131
35.56,34.25
35.559,34.383
35.558,34.529
35.556,34.688
35.555,34.857
35.555,35.033
35.554,35.215
35.554,35.401
35.554,35.588
35.554,35.773
35.555,35.955
35.555,36.132
35.556,36.302
35.557,36.461
35.556,36.609
35.555,36.745
35.551,36.866
35.545,36.972
35.537,37.062
35.525,37.135
35.51,37.194
35.491,37.238
35.469,37.269
35.444,37.288
35.415,37.296
35.384,37.293
35.351,37.282
35.317,37.262
35.281,37.236
35.244,37.203
35.207,37.165
35.171,37.123
35.136,37.078
35.102,37.03
35.07,36.981
35.039,36.931
35.01,36.882
34.982,36.834
34.955,36.787
34.93,36.742
34.905,36.699
34.881,36.657
34.859,36.616
34.837,36.576
34.815,36.537
34.794,36.499
34.774,36.461
34.755,36.424
34.736,36.387
34.719,36.349
34.702,36.311
34.686,36.273
34.67,36.234
34.656,36.194
34.642,36.154
34.628,36.114
34.615,36.076
34.601,36.039
34.586,36.004
34.571,35.971
34.554,35.94
34.535,35.913
34.516,35.888
34.497,35.866
34.476,35.847
34.455,35.832
34.435,35.821
34.414,35.813
34.394,35.809
34.375,35.807
34.358,35.81
34.343,35.815
34.33,35.824
34.321,35.836
34.317,35.85
34.32,35.866
34.331,35.884
34.353,35.902
34.386,35.922
34.432,35.942
34.493,35.961
34.568,35.98
34.658,35.998
34.762,36.015
34.88,36.029
35.01,36.042
35.151,36.052
35.3,36.059
35.454,36.063
35.611,36.063
35.769,36.058
35.924,36.049
36.075,36.035
36.219,36.017
36.355,35.994
36.479,35.968
36.593,35.938
36.694,35.906
36.782,35.871
36.857,35.835
36.918,35.798
36.968,35.76
37.004,35.722
37.029,35.684
37.044,35.646
37.048,35.608
37.044,35.571
37.032,35.534
37.014,35.499
36.989,35.465
36.96,35.432
36.926,35.4
36.89,35.368
36.853,35.338
36.814,35.307
36.774,35.277
36.735,35.246
36.697,35.215
36.659,35.183
36.623,35.151
36.588,35.118
36.554,35.084
36.522,35.05
36.492,35.017
36.463,34.983
36.435,34.949
36.409,34.916
36.384,34.884
36.359,34.852
36.334,34.822
36.308,34.792
36.282,34.764
36.254,34.738
36.226,34.713
36.197,34.689
36.167,34.666
36.137,34.645
36.107,34.624
36.077,34.604
36.049,34.585
36.023,34.566
35.998,34.548
35.975,34.53
35.955,34.513
35.937,34.496
35.921,34.478
35.908,34.459
35.898,34.44
35.891,34.421
35.887,34.402
35.884,34.384
35.884,34.365
35.886,34.347
35.889,34.329
35.893,34.313
35.899,34.297
35.906,34.281
35.914,34.266
35.921,34.25
35.928,34.234
35.934,34.218
35.938,34.201
35.94,34.185
35.941,34.168
35.94,34.152
35.937,34.136
35.932,34.121
35.925,34.108
35.916,34.097
35.904,34.089
35.89,34.087
35.873,34.091
35.853,34.102
35.83,34.124
35.806,34.157
35.779,34.202
35.752,34.262
35.723,34.338
35.693,34.429
35.664,34.535
35.635,34.657
35.606,34.794
35.578,34.944
35.551,35.107
35.525,35.279
35.499,35.458
35.474,35.643
35.448,35.831
35.423,36.019
35.397,36.204
35.372,36.384
35.345,36.558
35.318,36.721
35.289,36.874
35.26,37.015
35.23,37.142
35.199,37.255
35.169,37.353
35.138,37.436
35.109,37.504
35.081,37.558
35.054,37.597
35.028,37.622
35.003,37.635
34.98,37.636
34.957,37.627
34.937,37.608
34.917,37.581
34.898,37.547
34.879,37.507
34.86,37.461
34.842,37.412
34.824,37.361
34.806,37.308
34.788,37.254
34.77,37.201
34.752,37.148
34.734,37.095
34.715,37.043
34.696,36.992
34.677,36.941
34.659,36.892
34.64,36.843
34.623,36.795
34.607,36.748
34.593,36.701
34.582,36.654
34.574,36.607
34.573,36.559
34.577,36.51
34.591,36.461
34.614,36.412
34.65,36.362
34.699,36.312
34.762,36.263
34.84,36.214
34.934,36.167
35.042,36.123
35.164,36.082
35.298,36.044
35.442,36.01
35.595,35.98
35.755,35.953
35.919,35.93
36.085,35.911
36.25,35.897
36.412,35.886
36.569,35.88
36.718,35.878
36.858,35.879
36.987,35.883
37.103,35.891
37.205,35.9
37.294,35.912
37.368,35.925
37.428,35.939
37.473,35.953
37.506,35.968
37.526,35.982
37.534,35.996
37.532,36.009
37.522,36.021
37.504,36.031
37.48,36.04
37.45,36.046
37.415,36.049
37.376,36.05
37.334,36.047
37.29,36.041
37.244,36.032
37.197,36.019
37.15,36.003
37.102,35.984
37.054,35.963
37.008,35.94
36.962,35.914
36.918,35.887
36.875,35.858
36.834,35.828
36.794,35.796
36.755,35.762
36.716,35.727
36.678,35.691
36.64,35.654
36.602,35.615
36.564,35.575
36.525,35.535
36.484,35.493
36.442,35.451
36.398,35.409
36.353,35.367
36.307,35.326
36.261,35.284
36.215,35.243
36.17,35.203
36.128,35.164
36.089,35.126
36.052,35.088
36.02,35.052
35.991,35.017
35.965,34.982
35.943,34.948
35.923,34.915
35.907,34.882
35.892,34.85
35.88,34.818
35.87,34.788
35.861,34.759
35.853,34.731
35.847,34.704
35.841,34.679
35.835,34.654
35.83,34.63
35.825,34.606
35.82,34.582
35.816,34.559
35.81,34.536
35.805,34.513
35.798,34.489
35.79,34.465
35.781,34.441
35.77,34.417
35.757,34.393
35.742,34.369
35.725,34.346
35.706,34.323
35.683,34.3
35.659,34.278
35.632,34.256
35.604,34.234
35.574,34.212
35.544,34.19
35.512,34.169
35.479,34.147
35.446,34.125
35.413,34.104
35.38,34.082
35.346,34.061
35.312,34.039
35.278,34.018
35.244,33.997
35.21,33.976
35.176,33.956
35.141,33.938
35.107,33.922
35.073,33.909
35.039,33.902
35.004,33.902
34.97,33.91
34.936,33.929
34.902,33.961
34.868,34.006
34.833,34.067
34.797,34.143
34.761,34.236
34.725,34.346
34.688,34.472
34.651,34.614
34.615,34.771
34.58,34.943
34.546,35.126
34.514,35.32
34.484,35.521
34.455,35.727
34.427,35.935
34.4,36.143
34.374,36.348
34.349,36.546
34.325,36.737
34.302,36.917
34.279,37.085
34.256,37.239
34.233,37.378
34.209,37.501
34.185,37.606
34.162,37.695
34.139,37.766
34.117,37.82
34.098,37.857
34.082,37.88
34.071,37.888
34.067,37.883
34.071,37.867
34.087,37.842
34.114,37.808
34.154,37.767
34.208,37.721
34.277,37.67
34.361,37.617
34.459,37.561
34.571,37.503
34.696,37.445
34.833,37.385
34.979,37.325
35.132,37.265
35.289,37.205
35.449,37.145
35.609,37.086
35.767,37.027
35.92,36.967
36.066,36.908
36.203,36.847
36.329,36.785
36.441,36.722
36.54,36.658
36.625,36.593
36.696,36.528
36.752,36.463
36.794,36.398
36.823,36.334
36.839,36.273
36.844,36.214
36.838,36.158
36.822,36.105
36.798,36.056
36.766,36.012
36.729,35.973
36.686,35.939
36.639,35.91
36.589,35.887
36.537,35.868
36.484,35.854
36.431,35.844
36.378,35.838
36.326,35.835
36.275,35.835
36.225,35.837
36.176,35.842
36.129,35.848
36.083,35.856
36.038,35.866
35.993,35.877
35.948,35.89
35.903,35.904
35.858,35.919
35.812,35.934
35.766,35.95
35.719,35.965
35.671,35.98
35.622,35.994
35.574,36.007
35.525,36.017
35.477,36.024
35.43,36.027
35.385,36.025
35.342,36.018
35.302,36.006
35.265,35.99
35.231,35.969
35.201,35.945
35.175,35.918
35.152,35.889
35.134,35.857
35.12,35.823
35.11,35.788
35.104,35.752
35.101,35.715
35.101,35.678
35.103,35.641
35.106,35.604
35.111,35.568
35.117,35.532
35.122,35.497
35.126,35.463
35.129,35.429
35.131,35.397
35.13,35.365
35.127,35.334
35.122,35.302
35.114,35.271
35.104,35.239
35.09,35.207
35.075,35.174
35.057,35.142
35.037,35.109
35.016,35.076
34.993,35.044
34.969,35.012
34.944,34.982
34.918,34.951
34.892,34.922
34.866,34.893
34.839,34.863
34.812,34.833
34.785,34.801
34.757,34.769
34.728,34.736
34.699,34.702
34.669,34.667
34.638,34.633
34.606,34.599
34.573,34.566
34.54,34.534
34.507,34.502
34.473,34.472
34.439,34.443
34.405,34.416
34.372,34.391
34.339,34.368
34.307,34.348
34.276,34.33
34.245,34.315
34.215,34.301
34.184,34.29
34.154,34.282
34.124,34.275
34.094,34.269
34.065,34.265
34.035,34.261
34.007,34.259
33.979,34.257
33.952,34.256
33.926,34.253
33.9,34.25
33.876,34.245
33.851,34.239
33.827,34.232
33.803,34.223
33.779,34.215
33.754,34.208
33.73,34.204
33.705,34.204
33.68,34.212
33.655,34.229
33.631,34.256
33.607,34.296
33.585,34.351
33.566,34.423
33.55,34.513
33.54,34.623
33.538,34.752
33.546,34.902
33.565,35.071
33.598,35.259
33.646,35.465
33.71,35.685
33.791,35.918
33.89,36.161
34.005,36.41
34.138,36.663
34.285,36.916
34.446,37.165
34.618,37.407
34.798,37.64
34.984,37.859
35.172,38.063
35.359,38.25
35.541,38.418
35.717,38.565
35.884,38.693
36.039,38.8
36.182,38.887
36.309,38.954
36.421,39.003
36.516,39.034
36.595,39.048
36.658,39.046
36.706,39.031
36.74,39.004
36.761,38.968
36.771,38.923
36.771,38.871
36.761,38.813
36.744,38.752
36.721,38.687
36.693,38.62
36.66,38.551
36.625,38.482
36.587,38.412
36.546,38.342
36.505,38.273
36.462,38.206
36.419,38.139
36.377,38.075
36.334,38.012
36.293,37.952
36.252,37.892
36.212,37.835
36.172,37.778
36.132,37.722
36.092,37.667
36.05,37.612
36.007,37.557
35.963,37.501
35.917,37.445
35.87,37.388
35.821,37.332
35.772,37.277
35.721,37.223
35.67,37.171
35.618,37.122
35.567,37.077
35.516,37.036
35.467,36.999
35.42,36.968
35.375,36.942
35.333,36.921
35.296,36.906
35.262,36.895
35.233,36.888
35.207,36.886
35.185,36.888
35.167,36.894
35.152,36.903
35.141,36.914
35.133,36.927
35.127,36.942
35.124,36.958
35.124,36.975
35.126,36.992
35.129,37.008
35.134,37.023
35.141,37.035
35.148,37.045
35.158,37.053
35.168,37.057
35.179,37.058
35.19,37.056
35.2,37.051
35.209,37.043
35.217,37.032
35.222,37.019
35.224,37.003
35.224,36.984
35.221,36.963
35.215,36.94
35.205,36.915
35.191,36.888
35.174,36.859
35.153,36.828
35.13,36.796
35.104,36.761
35.077,36.724
35.048,36.685
35.017,36.645
34.986,36.602
34.954,36.558
34.921,36.512
34.889,36.464
34.855,36.415
34.822,36.364
34.788,36.313
34.755,36.26
34.723,36.207
34.692,36.153
34.663,36.1
34.634,36.047
34.607,35.995
34.581,35.944
34.557,35.894
34.535,35.846
34.513,35.8
34.492,35.755
34.473,35.713
34.453,35.673
34.434,35.636
34.415,35.599
34.397,35.565
34.378,35.532
34.36,35.5
34.34,35.468
34.32,35.436
34.299,35.404
34.277,35.371
34.253,35.338
34.227,35.305
34.2,35.272
34.172,35.239
34.143,35.207
34.114,35.176
34.086,35.146
34.058,35.116
34.032,35.087
34.01,35.058
33.991,35.029
33.977,35
33.969,34.97
33.969,34.941
33.978,34.911
33.997,34.881
34.028,34.852
34.072,34.822
34.132,34.792
34.208,34.761
34.3,34.731
34.41,34.7
34.536,34.67
34.679,34.639
34.836,34.61
35.008,34.581
35.191,34.553
35.384,34.528
35.584,34.505
35.788,34.486
35.994,34.472
36.198,34.463
36.397,34.46
36.589,34.467
36.771,34.484
36.94,34.514
37.094,34.56
37.232,34.623
37.353,34.706
37.456,34.808
37.542,34.931
37.61,35.074
37.662,35.237
37.699,35.419
37.721,35.619
37.731,35.836
37.729,36.066
37.718,36.308
37.698,36.558
37.671,36.813
37.639,37.07
37.601,37.325
37.56,37.575
37.516,37.816
37.47,38.045
37.423,38.259
37.375,38.457
37.327,38.636
37.279,38.795
37.231,38.934
37.184,39.052
37.137,39.15
37.091,39.228
37.045,39.287
36.999,39.327
36.953,39.351
36.907,39.358
36.861,39.352
36.815,39.332
36.768,39.301
36.722,39.26
36.675,39.21
36.629,39.153
36.582,39.09
36.537,39.024
36.492,38.954
36.449,38.882
36.406,38.809
36.366,38.735
36.327,38.66
36.289,38.586
36.252,38.513
36.217,38.44
36.184,38.368
36.152,38.297
36.123,38.228
36.096,38.161
36.072,38.095
36.051,38.029
36.032,37.964
36.017,37.898
36.006,37.832
35.998,37.765
35.993,37.697
35.991,37.629
35.992,37.56
35.995,37.492
36,37.423
36.005,37.356
36.011,37.291
36.017,37.228
36.023,37.169
36.028,37.115
36.031,37.067
36.033,37.024
36.033,36.987
36.03,36.956
36.024,36.93
36.017,36.91
36.007,36.896
35.995,36.887
35.98,36.884
35.963,36.886
35.944,36.892
35.922,36.902
35.898,36.915
35.872,36.931
35.843,36.947
35.811,36.963
35.777,36.98
35.742,36.995
35.705,37.01
35.667,37.023
35.629,37.036
35.59,37.046
35.552,37.055
35.514,37.061
35.476,37.065
35.438,37.066
35.4,37.064
35.363,37.058
35.326,37.049
35.29,37.036
35.253,37.019
35.216,36.998
35.18,36.974
35.144,36.944
35.109,36.911
35.075,36.873
35.042,36.831
35.01,36.785
34.98,36.735
34.95,36.682
34.921,36.625
34.892,36.567
34.863,36.507
34.835,36.446
34.806,36.383
34.778,36.32
34.749,36.257
34.721,36.193
34.692,36.13
34.664,36.068
34.637,36.007
34.61,35.948
34.584,35.889
34.559,35.833
34.536,35.779
34.516,35.726
34.499,35.675
34.486,35.626
34.479,35.578
34.48,35.531
34.491,35.486
34.514,35.441
34.55,35.398
34.602,35.355
34.669,35.312
34.754,35.27
34.857,35.228
34.978,35.187
35.116,35.146
35.27,35.107
35.439,35.069
35.62,35.031
35.811,34.995
36.009,34.96
36.21,34.925
36.412,34.891
36.61,34.857
36.803,34.825
36.986,34.793
37.158,34.762
37.315,34.732
37.457,34.702
37.582,34.673
37.689,34.646
37.779,34.62
37.851,34.595
37.905,34.572
37.943,34.549
37.966,34.527
37.975,34.505
37.971,34.483
37.957,34.462
37.933,34.441
37.901,34.42
37.863,34.4
37.821,34.38
37.775,34.361
37.726,34.343
37.677,34.326
37.627,34.312
37.577,34.301
37.528,34.295
37.48,34.295
37.433,34.302
37.387,34.319
37.341,34.348
37.296,34.391
37.252,34.45
37.208,34.527
37.164,34.624
37.119,34.741
37.074,34.879
37.026,35.038
36.976,35.217
36.924,35.415
36.87,35.63
36.815,35.86
36.758,36.101
36.702,36.35
36.647,36.605
36.592,36.862
36.538,37.117
36.487,37.368
36.438,37.609
36.392,37.84
36.349,38.056
36.309,38.255
36.273,38.435
36.241,38.595
36.212,38.734
36.188,38.852
36.168,38.948
36.151,39.022
36.137,39.076
36.125,39.109
36.116,39.124
36.108,39.123
36.103,39.107
36.099,39.077
36.096,39.037
36.093,38.986
36.091,38.927
36.088,38.861
36.086,38.789
36.082,38.712
36.078,38.632
36.072,38.549
36.064,38.464
36.055,38.378
36.044,38.291
36.032,38.205
36.018,38.119
36.003,38.035
35.986,37.951
35.968,37.869
35.948,37.787
35.927,37.706
35.905,37.626
35.881,37.547
35.857,37.467
35.832,37.387
35.807,37.307
35.782,37.226
35.757,37.144
35.731,37.063
35.704,36.982
35.677,36.903
35.648,36.826
35.618,36.752
35.588,36.681
35.556,36.614
35.525,36.552
35.493,36.497
35.461,36.447
35.43,36.405
35.398,36.369
35.368,36.341
35.337,36.319
35.307,36.304
35.277,36.296
35.247,36.294
35.216,36.298
35.186,36.307
35.155,36.32
35.123,36.337
35.092,36.357
35.06,36.38
35.028,36.404
34.996,36.43
34.963,36.456
34.93,36.481
34.897,36.505
34.863,36.527
34.829,36.546
34.796,36.562
34.763,36.574
34.731,36.581
34.7,36.584
34.669,36.582
34.638,36.576
34.609,36.566
34.58,36.552
34.551,36.533
34.524,36.511
34.497,36.485
34.473,36.455
34.451,36.421
34.434,36.383
34.422,36.342
34.416,36.297
34.42,36.25
34.434,36.2
34.461,36.148
34.501,36.094
34.556,36.04
34.627,35.984
34.715,35.929
34.819,35.873
34.94,35.818
35.077,35.765
35.227,35.712
35.391,35.661
35.565,35.611
35.746,35.563
35.933,35.514
36.122,35.467
36.31,35.42
36.494,35.373
36.671,35.327
36.838,35.28
36.994,35.234
37.135,35.187
37.26,35.141
37.369,35.096
37.461,35.051
37.536,35.007
37.595,34.963
37.637,34.92
37.664,34.877
37.676,34.835
37.675,34.792
37.663,34.749
37.641,34.707
37.611,34.664
37.575,34.622
37.533,34.581
37.487,34.541
37.438,34.502
37.386,34.464
37.333,34.429
37.277,34.395
37.221,34.364
37.163,34.334
37.104,34.307
37.045,34.282
36.985,34.258
36.925,34.236
36.865,34.213
36.806,34.191
36.746,34.169
36.686,34.146
36.626,34.122
36.565,34.097
36.504,34.071
36.443,34.044
36.382,34.017
36.32,33.99
36.258,33.963
36.197,33.936
36.137,33.909
36.078,33.883
36.02,33.858
35.963,33.833
35.907,33.81
35.853,33.789
35.801,33.77
35.752,33.756
35.707,33.747
35.665,33.745
35.628,33.752
35.595,33.771
35.566,33.803
35.542,33.852
35.522,33.918
35.505,34.004
35.492,34.111
35.482,34.24
35.475,34.391
35.471,34.563
35.47,34.756
35.469,34.967
35.47,35.193
35.471,35.432
35.473,35.681
35.474,35.937
35.474,36.196
35.472,36.454
35.469,36.707
35.465,36.953
35.458,37.188
35.449,37.408
35.437,37.612
35.422,37.798
35.404,37.962
35.383,38.105
35.36,38.226
35.334,38.325
35.306,38.402
35.277,38.459
35.246,38.496
35.214,38.514
35.18,38.514
35.146,38.497
35.11,38.466
35.073,38.421
35.035,38.365
34.996,38.298
34.957,38.222
34.918,38.139
34.879,38.051
34.84,37.958
34.801,37.862
34.764,37.765
34.727,37.666
34.691,37.566
34.655,37.465
34.621,37.365
34.587,37.264
34.553,37.164
34.521,37.064
34.488,36.963
34.456,36.862
34.425,36.76
34.393,36.658
34.362,36.556
34.331,36.454
34.3,36.353
34.268,36.252
34.236,36.152
34.205,36.054
34.173,35.959
34.142,35.866
34.111,35.778
34.081,35.694
34.051,35.616
34.021,35.544
33.993,35.479
33.965,35.422
33.937,35.373
33.911,35.332
33.885,35.299
33.859,35.273
33.835,35.255
33.812,35.242
33.79,35.235
33.769,35.233
33.752,35.235
33.738,35.241
33.729,35.25
33.727,35.261
33.732,35.275
33.746,35.292
33.771,35.311
33.809,35.33
33.859,35.351
33.924,35.372
34.004,35.393
34.1,35.414
34.21,35.434
34.334,35.453
34.472,35.469
34.621,35.483
34.779,35.492
34.943,35.496
35.112,35.495
35.281,35.489
35.448,35.478
35.611,35.462
35.766,35.44
35.911,35.414
36.045,35.384
36.165,35.35
36.27,35.312
36.359,35.273
36.433,35.231
36.491,35.187
36.535,35.141
36.565,35.093
36.582,35.044
36.587,34.992
36.582,34.939
36.568,34.884
36.546,34.827
36.516,34.769
36.481,34.71
36.44,34.651
36.396,34.591
36.348,34.532
36.298,34.473
36.246,34.415
36.194,34.358
36.14,34.302
36.087,34.248
36.033,34.195
35.98,34.143
35.928,34.092
35.875,34.043
35.824,33.996
35.772,33.95
35.721,33.906
35.67,33.863
35.619,33.822
35.567,33.782
35.515,33.744
35.462,33.706
35.41,33.671
35.357,33.636
35.304,33.602
35.252,33.569
35.201,33.537
35.152,33.504
35.105,33.472
35.06,33.44
35.018,33.407
34.979,33.376
34.944,33.344
34.912,33.314
34.883,33.284
34.857,33.256
34.834,33.228
34.813,33.201
34.796,33.175
34.782,33.149
34.77,33.123
34.761,33.096
34.753,33.07
34.748,33.043
34.745,33.015
34.743,32.988
34.742,32.961
34.742,32.934
34.743,32.907
34.743,32.88
34.743,32.854
34.742,32.83
34.739,32.808
34.735,32.789
34.729,32.775
34.721,32.767
34.711,32.768
34.699,32.779
34.686,32.804
34.671,32.843
34.655,32.901
34.638,32.978
34.62,33.076
34.601,33.195
34.581,33.337
34.559,33.5
34.537,33.684
34.512,33.888
34.485,34.109
34.456,34.345
34.425,34.594
34.392,34.851
34.358,35.114
34.323,35.379
34.286,35.642
34.25,35.899
34.213,36.148
34.177,36.385
34.141,36.607
34.106,36.813
34.071,37.001
34.037,37.168
34.004,37.314
33.97,37.438
33.937,37.541
33.905,37.622
33.874,37.682
33.843,37.723
33.813,37.745
33.785,37.75
33.757,37.738
33.73,37.712
33.704,37.672
33.678,37.621
33.654,37.56
33.63,37.492
33.606,37.418
33.584,37.34
33.561,37.258
33.54,37.173
33.518,37.087
33.497,37
33.476,36.912
33.455,36.825
33.435,36.737
33.415,36.649
33.396,36.561
33.378,36.472
33.362,36.383
33.348,36.293
33.338,36.202
33.333,36.111
33.334,36.019
33.342,35.926
33.36,35.834
33.388,35.742
33.428,35.651
33.481,35.562
33.548,35.476
33.63,35.393
33.727,35.314
33.838,35.24
33.964,35.173
34.104,35.112
34.255,35.058
34.416,35.011
34.585,34.972
34.759,34.941
34.935,34.916
35.11,34.897
35.282,34.884
35.446,34.876
35.602,34.874
35.745,34.877
35.875,34.885
35.991,34.898
36.09,34.915
36.173,34.935
36.24,34.958
36.29,34.983
36.326,35.01
36.349,35.038
36.359,35.066
36.358,35.093
36.347,35.119
36.329,35.144
36.305,35.166
36.275,35.187
36.241,35.204
36.203,35.218
36.162,35.229
36.12,35.235
36.077,35.236
36.032,35.233
35.988,35.225
35.943,35.213
35.899,35.197
35.857,35.176
35.815,35.151
35.774,35.122
35.735,35.088
35.696,35.052
35.658,35.012
35.622,34.97
35.585,34.926
35.55,34.88
35.515,34.833
35.479,34.786
35.443,34.737
35.406,34.688
35.369,34.639
35.33,34.589
35.291,34.538
35.252,34.487
35.212,34.436
35.172,34.386
35.133,34.338
35.095,34.29
35.058,34.244
35.024,34.2
34.992,34.158
34.964,34.116
34.938,34.076
34.916,34.037
34.898,33.999
34.883,33.961
34.872,33.925
34.865,33.889
34.862,33.855
34.862,33.822
34.866,33.79
34.872,33.759
34.881,33.729
34.89,33.699
34.901,33.669
34.911,33.64
34.921,33.612
34.93,33.585
34.937,33.559
34.942,33.534
34.946,33.511
34.947,33.49
34.946,33.47
34.943,33.452
34.939,33.435
34.933,33.419
34.926,33.403
34.917,33.388
34.908,33.373
34.896,33.357
34.883,33.342
34.869,33.326
34.853,33.309
34.836,33.293
34.817,33.277
34.797,33.26
34.776,33.242
34.754,33.224
34.731,33.205
34.707,33.186
34.683,33.165
34.657,33.145
34.63,33.124
34.604,33.105
34.577,33.088
34.552,33.075
34.527,33.067
34.503,33.068
34.48,33.08
34.458,33.104
34.437,33.144
34.415,33.202
34.393,33.28
34.371,33.381
34.349,33.505
34.326,33.653
34.303,33.825
34.28,34.021
34.257,34.241
34.234,34.481
34.211,34.74
34.188,35.015
34.165,35.302
34.143,35.598
34.121,35.9
34.099,36.201
34.078,36.5
34.057,36.791
34.037,37.072
34.017,37.339
33.997,37.59
33.978,37.822
33.96,38.034
33.943,38.224
33.929,38.39
33.917,38.532
33.91,38.651
33.91,38.745
33.917,38.817
33.934,38.867
33.963,38.897
34.006,38.908
34.064,38.902
34.138,38.881
34.23,38.847
34.34,38.801
34.466,38.745
34.608,38.68
34.764,38.609
34.933,38.532
35.112,38.451
35.298,38.367
35.488,38.281
35.679,38.193
35.867,38.105
36.05,38.018
36.224,37.931
36.387,37.846
36.539,37.763
36.676,37.681
36.799,37.602
36.906,37.524
36.998,37.448
37.074,37.374
37.134,37.301
37.181,37.228
37.213,37.155
37.234,37.082
37.244,37.008
37.244,36.933
37.236,36.858
37.222,36.782
37.202,36.707
37.178,36.633
37.151,36.563
37.122,36.497
37.092,36.436
37.061,36.38
37.029,36.331
36.997,36.289
36.964,36.254
36.931,36.227
36.898,36.207
36.864,36.194
36.829,36.188
36.795,36.188
36.759,36.193
36.723,36.203
36.686,36.216
36.649,36.233
36.61,36.253
36.57,36.275
36.529,36.298
36.487,36.322
36.443,36.346
36.398,36.369
36.352,36.391
36.305,36.411
36.257,36.428
36.211,36.442
36.164,36.451
36.119,36.457
36.075,36.458
36.031,36.455
35.99,36.447
35.95,36.434
35.911,36.417
35.875,36.396
35.841,36.37
35.81,36.341
35.781,36.307
35.756,36.271
35.735,36.231
35.717,36.188
35.703,36.143
35.693,36.096
35.686,36.046
35.683,35.995
35.682,35.942
35.685,35.886
35.69,35.829
35.697,35.77
35.706,35.711
35.716,35.65
35.726,35.589
35.737,35.528
35.747,35.466
35.755,35.406
35.76,35.345
35.763,35.286
35.763,35.229
35.76,35.173
35.753,35.118
35.742,35.066
35.729,35.016
35.713,34.967
35.694,34.921
35.673,34.877
35.649,34.835
35.624,34.796
35.597,34.757
35.568,34.721
35.538,34.685
35.507,34.649
35.475,34.614
35.442,34.578
35.409,34.543
35.375,34.508
35.34,34.472
35.306,34.437
35.273,34.401
35.24,34.366
35.207,34.331
35.176,34.296
35.145,34.263
35.115,34.231
35.087,34.199
35.061,34.17
35.035,34.141
35.011,34.114
34.989,34.088
34.967,34.063
34.947,34.04
34.927,34.018
34.908,33.996
34.889,33.974
34.871,33.953
34.853,33.932
34.836,33.911
34.818,33.888
34.799,33.865
34.78,33.841
34.76,33.816
34.739,33.79
34.717,33.763
34.695,33.738
34.671,33.715
34.648,33.695
34.626,33.681
34.606,33.675
34.589,33.679
34.576,33.695
34.568,33.726
34.568,33.774
34.577,33.842
34.597,33.931
34.629,34.043
34.675,34.18
34.736,34.341
34.813,34.527
34.907,34.737
35.018,34.969
35.145,35.221
35.287,35.491
35.441,35.774
35.605,36.067
35.777,36.365
35.954,36.664
36.133,36.96
36.311,37.248
36.487,37.525
36.657,37.787
36.818,38.031
36.969,38.255
37.108,38.457
37.233,38.636
37.343,38.79
37.438,38.92
37.517,39.026
37.58,39.108
37.628,39.167
37.661,39.205
37.679,39.224
37.684,39.224
37.677,39.209
37.659,39.18
37.632,39.139
37.597,39.086
37.556,39.025
37.51,38.955
37.461,38.879
37.409,38.798
37.356,38.713
37.301,38.626
37.247,38.537
37.193,38.447
37.14,38.357
37.088,38.268
37.038,38.181
36.991,38.094
36.946,38.01
36.904,37.927
36.864,37.846
36.826,37.768
36.788,37.692
36.752,37.618
36.717,37.545
36.682,37.475
36.647,37.405
36.611,37.336
36.575,37.268
36.538,37.2
36.5,37.133
36.461,37.066
36.421,37
36.381,36.935
36.34,36.872
36.299,36.811
36.26,36.753
36.222,36.698
36.186,36.648
36.154,36.602
36.124,36.562
36.099,36.527
36.078,36.497
36.06,36.473
36.047,36.455
36.036,36.441
36.029,36.433
36.023,36.43
36.02,36.431
36.019,36.436
36.018,36.443
36.018,36.454
36.019,36.466
36.021,36.481
36.023,36.497
36.025,36.513
36.026,36.528
36.028,36.543
36.028,36.555
36.028,36.564
36.026,36.571
36.022,36.574
36.017,36.574
36.009,36.57
36,36.562
35.987,36.551
35.973,36.536
35.956,36.517
35.937,36.494
35.916,36.467
35.893,36.436
35.869,36.401
35.843,36.364
35.817,36.323
35.789,36.279
35.761,36.233
35.733,36.184
35.704,36.134
35.675,36.081
35.645,36.027
35.616,35.971
35.586,35.913
35.556,35.855
35.527,35.795
35.497,35.734
35.468,35.674
35.439,35.613
35.41,35.554
35.382,35.495
35.354,35.437
35.326,35.379
35.298,35.323
35.27,35.267
35.242,35.213
35.214,35.159
35.186,35.107
35.159,35.055
35.131,35.005
35.104,34.956
35.078,34.908
35.051,34.861
35.025,34.814
34.999,34.769
34.973,34.726
34.947,34.684
34.922,34.644
34.897,34.605
34.871,34.569
34.846,34.534
34.822,34.501
34.798,34.471
34.775,34.442
34.752,34.415
34.731,34.389
34.712,34.364
34.697,34.341
34.685,34.318
34.68,34.297
34.681,34.275
34.692,34.255
34.714,34.234
34.749,34.214
34.798,34.195
34.861,34.175
34.94,34.157
35.034,34.139
35.144,34.122
35.268,34.105
35.406,34.088
35.555,34.071
35.714,34.053
35.88,34.035
36.05,34.015
36.221,33.996
36.39,33.976
36.555,33.955
36.712,33.935
36.859,33.914
36.995,33.892
37.117,33.87
37.225,33.848
37.318,33.826
37.395,33.807
37.457,33.792
37.503,33.781
37.534,33.778
37.552,33.785
37.558,33.804
37.552,33.837
37.536,33.887
37.511,33.957
37.479,34.046
37.44,34.159
37.398,34.294
37.351,34.453
37.302,34.636
37.251,34.842
37.198,35.069
37.144,35.315
37.089,35.577
37.035,35.854
36.98,36.14
36.925,36.432
36.87,36.727
36.816,37.019
36.762,37.305
36.709,37.582
36.656,37.844
36.603,38.09
36.549,38.316
36.496,38.521
36.443,38.704
36.389,38.863
36.335,38.997
36.281,39.107
36.226,39.193
36.172,39.255
36.119,39.294
36.066,39.313
36.015,39.312
35.966,39.293
35.919,39.259
35.875,39.21
35.834,39.15
35.797,39.08
35.763,39
35.734,38.914
35.709,38.822
35.688,38.726
35.672,38.628
35.659,38.529
35.651,38.429
35.646,38.33
35.644,38.232
35.644,38.136
35.646,38.041
35.65,37.949
35.655,37.86
35.661,37.774
35.668,37.691
35.675,37.609
35.682,37.53
35.688,37.452
35.693,37.375
35.697,37.298
35.7,37.22
35.701,37.142
35.699,37.064
35.696,36.986
35.69,36.909
35.681,36.833
35.669,36.76
35.655,36.69
35.639,36.623
35.62,36.561
35.601,36.504
35.58,36.452
35.557,36.406
35.534,36.367
35.51,36.334
35.484,36.307
35.458,36.287
35.43,36.272
35.4,36.264
35.37,36.261
35.339,36.263
35.309,36.269
35.279,36.279
35.25,36.29
35.222,36.304
35.195,36.317
35.169,36.331
35.143,36.345
35.117,36.358
35.091,36.371
35.065,36.383
35.04,36.393
35.015,36.4
34.992,36.406
34.969,36.408
34.947,36.408
34.926,36.405
34.905,36.398
34.884,36.387
34.863,36.372
34.842,36.353
34.821,36.33
34.8,36.303
34.779,36.271
34.758,36.235
34.736,36.196
34.715,36.153
34.693,36.107
34.672,36.06
34.65,36.01
34.629,35.959
34.608,35.906
34.588,35.851
34.569,35.796
34.553,35.739
34.54,35.683
34.531,35.625
34.528,35.568
34.531,35.511
34.542,35.454
34.563,35.397
34.595,35.34
34.641,35.284
34.701,35.228
34.777,35.172
34.868,35.116
34.976,35.061
35.099,35.007
35.236,34.954
35.384,34.903
35.543,34.855
35.708,34.808
35.878,34.763
36.049,34.72
36.218,34.678
36.383,34.638
36.54,34.6
36.688,34.565
36.824,34.531
36.948,34.5
37.057,34.469
37.152,34.439
37.232,34.409
37.296,34.38
37.347,34.35
37.384,34.322
37.409,34.293
37.424,34.265
37.427,34.236
37.422,34.208
37.409,34.18
37.389,34.153
37.364,34.125
37.335,34.098
37.301,34.07
37.265,34.043
37.227,34.016
37.188,33.989
37.147,33.963
37.106,33.938
37.064,33.913
37.022,33.889
36.981,33.867
36.939,33.845
36.897,33.823
36.856,33.803
36.815,33.782
36.774,33.762
36.734,33.742
36.693,33.723
36.653,33.703
36.613,33.684
36.573,33.664
36.533,33.644
36.493,33.624
36.452,33.603
36.411,33.583
36.371,33.562
36.33,33.542
36.29,33.523
36.251,33.506
36.212,33.491
36.175,33.48
36.14,33.474
36.108,33.475
36.078,33.484
36.052,33.506
36.03,33.542
36.012,33.595
35.998,33.668
35.987,33.763
35.98,33.882
35.977,34.026
35.976,34.194
35.978,34.387
35.981,34.604
35.987,34.841
35.994,35.098
36.002,35.37
36.011,35.655
36.019,35.949
36.026,36.247
36.031,36.546
36.034,36.842
36.034,37.13
36.03,37.407
36.023,37.67
36.013,37.914
35.999,38.137
35.982,38.337
35.962,38.513
35.94,38.661
35.916,38.783
35.89,38.879
35.863,38.949
35.834,38.995
35.806,39.019
35.776,39.022
35.747,39.006
35.717,38.975
35.688,38.929
35.659,38.872
35.631,38.805
35.604,38.729
35.577,38.647
35.551,38.559
35.526,38.468
35.501,38.375
35.476,38.28
35.451,38.183
35.427,38.086
35.402,37.989
35.378,37.893
35.353,37.797
35.328,37.703
35.302,37.61
35.276,37.519
35.25,37.432
35.223,37.346
35.196,37.263
35.169,37.181
35.141,37.101
35.113,37.022
35.084,36.943
35.055,36.865
35.026,36.787
34.997,36.709
34.967,36.633
34.938,36.557
34.908,36.482
34.879,36.41
34.85,36.34
34.821,36.274
34.794,36.212
34.767,36.156
34.74,36.105
34.714,36.061
34.689,36.025
34.665,35.995
34.641,35.973
34.619,35.958
34.6,35.949
34.584,35.946
34.572,35.948
34.568,35.954
34.571,35.965
34.584,35.978
34.609,35.994
34.647,36.011
34.699,36.029
34.766,36.046
34.849,36.062
34.946,36.076
35.058,36.087
35.183,36.095
35.319,36.099
35.465,36.1
35.618,36.096
35.775,36.088
35.935,36.075
36.094,36.058
36.25,36.038
36.4,36.013
36.541,35.985
36.672,35.954
36.792,35.919
36.898,35.881
36.99,35.84
37.069,35.797
37.133,35.75
37.183,35.701
37.22,35.649
37.244,35.594
37.256,35.537
37.256,35.478
37.247,35.417
37.23,35.355
37.206,35.292
37.176,35.229
37.141,35.165
37.103,35.101
37.061,35.038
37.018,34.976
36.972,34.915
36.926,34.856
36.879,34.798
36.831,34.742
36.783,34.688
36.734,34.637
36.686,34.588
36.638,34.542
36.59,34.498
36.543,34.457
36.496,34.419
36.45,34.382
36.403,34.347
36.357,34.314
36.31,34.282
36.263,34.251
36.214,34.222
36.165,34.193
36.115,34.165
36.064,34.139
36.012,34.114
35.96,34.09
35.908,34.067
35.856,34.045
35.806,34.024
35.757,34.004
35.709,33.983
35.664,33.963
35.621,33.943
35.58,33.922
35.543,33.901
35.508,33.88
35.477,33.859
35.45,33.837
35.427,33.814
35.408,33.791
35.392,33.768
35.381,33.745
35.372,33.723
35.366,33.701
35.361,33.681
35.357,33.662
35.353,33.644
35.35,33.627
35.347,33.612
35.343,33.599
35.339,33.586
35.334,33.574
35.329,33.561
35.322,33.548
35.313,33.535
35.302,33.52
35.288,33.504
35.272,33.486
35.254,33.467
35.234,33.446
35.213,33.423
35.19,33.399
35.165,33.374
35.138,33.351
35.11,33.33
35.08,33.313
35.048,33.303
35.015,33.303
34.981,33.313
34.946,33.339
34.911,33.381
34.875,33.443
34.839,33.528
34.804,33.636
34.768,33.77
34.734,33.93
34.7,34.115
34.667,34.324
34.634,34.556
34.603,34.808
34.573,35.077
34.543,35.359
34.514,35.65
34.486,35.947
34.458,36.244
34.43,36.538
34.402,36.825
34.374,37.101
34.345,37.363
34.317,37.608
34.288,37.833
34.259,38.037
34.23,38.217
34.202,38.373
34.173,38.504
34.145,38.61
34.116,38.692
34.087,38.75
34.058,38.786
34.029,38.8
33.999,38.796
33.968,38.774
33.936,38.736
33.904,38.685
33.871,38.622
33.84,38.55
33.81,38.469
33.781,38.383
33.755,38.293
33.733,38.201
33.715,38.107
33.703,38.014
33.698,37.921
33.702,37.829
33.716,37.739
33.742,37.651
33.782,37.566
33.835,37.483
33.903,37.404
33.985,37.327
34.082,37.253
34.191,37.181
34.312,37.112
34.442,37.043
34.581,36.976
34.725,36.908
34.873,36.84
35.021,36.772
35.167,36.703
35.309,36.634
35.444,36.567
35.571,36.5
35.686,36.435
35.789,36.371
35.879,36.31
35.955,36.251
36.017,36.196
36.064,36.144
36.098,36.096
36.119,36.054
36.129,36.017
36.127,35.985
36.117,35.96
36.098,35.94
36.072,35.925
36.041,35.917
36.006,35.913
35.967,35.914
35.926,35.919
35.882,35.929
35.837,35.941
35.791,35.956
35.744,35.973
35.697,35.992
35.65,36.012
35.604,36.033
35.557,36.053
35.512,36.073
35.466,36.091
35.421,36.106
35.376,36.115
35.33,36.12
35.283,36.121
35.236,36.116
35.188,36.108
35.138,36.095
35.087,36.079
35.036,36.059
34.983,36.034
34.93,36.006
34.877,35.973
34.824,35.935
34.772,35.893
34.722,35.847
34.673,35.797
34.626,35.744
34.581,35.689
34.539,35.631
34.5,35.573
34.464,35.513
34.431,35.453
34.401,35.394
34.374,35.336
34.35,35.28
34.329,35.226
34.311,35.174
34.295,35.123
34.282,35.073
34.272,35.025
34.263,34.977
34.256,34.93
34.251,34.884
34.247,34.838
34.243,34.793
34.24,34.748
34.237,34.703
34.234,34.658
34.231,34.613
34.228,34.569
34.224,34.525
34.219,34.482
34.213,34.44
34.206,34.4
34.197,34.361
34.186,34.323
34.174,34.286
34.161,34.251
34.146,34.217
34.131,34.184
34.115,34.154
34.098,34.125
34.08,34.097
34.062,34.071
34.042,34.045
34.022,34.02
34.001,33.997
33.98,33.974
33.958,33.952
33.934,33.931
33.91,33.911
33.886,33.892
33.861,33.872
33.836,33.852
33.81,33.832
33.785,33.811
33.76,33.79
33.735,33.768
33.71,33.746
33.686,33.723
33.662,33.701
33.64,33.679
33.619,33.657
33.599,33.637
33.58,33.616
33.562,33.596
33.545,33.576
33.528,33.556
33.512,33.535
33.495,33.515
33.478,33.494
33.461,33.473
33.444,33.451
33.427,33.43
33.409,33.409
33.393,33.388
33.376,33.367
33.361,33.349
33.346,33.334
33.332,33.324
33.319,33.318
33.307,33.32
33.295,33.331
33.285,33.353
33.276,33.388
33.27,33.44
33.266,33.511
33.267,33.602
33.275,33.716
33.292,33.853
33.319,34.013
33.358,34.198
33.409,34.406
33.475,34.635
33.556,34.885
33.651,35.151
33.76,35.432
33.882,35.722
34.016,36.018
34.161,36.315
34.314,36.61
34.474,36.898
34.639,37.175
34.805,37.438
34.971,37.683
35.133,37.908
35.289,38.111
35.436,38.29
35.573,38.444
35.698,38.573
35.811,38.676
35.911,38.755
35.998,38.811
36.071,38.844
36.132,38.858
36.18,38.853
36.217,38.833
36.243,38.798
36.259,38.751
36.265,38.694
36.264,38.629
36.255,38.557
36.241,38.48
36.221,38.401
36.196,38.32
36.168,38.239
36.135,38.159
36.099,38.081
36.061,38.004
36.021,37.93
35.979,37.858
35.938,37.789
35.896,37.723
35.854,37.66
35.812,37.6
35.77,37.542
35.729,37.485
35.689,37.43
35.649,37.375
35.609,37.32
35.569,37.265
35.529,37.209
35.489,37.151
35.45,37.092
35.41,37.031
35.371,36.969
35.334,36.906
35.297,36.842
35.261,36.779
35.227,36.717
35.195,36.657
35.164,36.601
35.136,36.549
35.11,36.501
35.087,36.46
35.067,36.424
35.049,36.395
35.033,36.372
35.02,36.356
35.009,36.345
35,36.34
34.992,36.341
34.985,36.346
34.98,36.355
34.975,36.367
34.97,36.382
34.967,36.398
34.964,36.415
34.962,36.433
34.961,36.45
34.96,36.465
34.96,36.478
34.961,36.488
34.962,36.495
34.963,36.498
34.964,36.497
34.964,36.491
34.963,36.481
34.962,36.467
34.959,36.448
34.954,36.425
34.948,36.398
34.939,36.366
34.929,36.33
34.917,36.289
34.903,36.245
34.887,36.196
34.869,36.143
34.85,36.085
34.83,36.024
34.809,35.958
34.787,35.889
34.764,35.818
34.741,35.745
34.717,35.67
34.694,35.595
34.67,35.52
34.647,35.446
34.623,35.372
34.601,35.3
34.578,35.231
34.556,35.164
34.535,35.1
34.513,35.039
34.491,34.981
34.468,34.926
34.444,34.873
34.42,34.823
34.396,34.775
34.371,34.73
34.346,34.687
34.322,34.646
34.297,34.606
34.273,34.568
34.249,34.531
34.225,34.495
34.202,34.459
34.179,34.425
34.156,34.39
34.133,34.356
34.11,34.322
34.089,34.289
34.069,34.255
34.049,34.222
34.031,34.188
34.015,34.154
34,34.12
33.988,34.086
33.978,34.052
33.972,34.017
33.971,33.983
33.975,33.948
33.986,33.914
34.006,33.88
34.037,33.847
34.079,33.815
34.133,33.784
34.202,33.753
34.285,33.724
34.382,33.696
34.494,33.67
34.618,33.645
34.755,33.622
34.901,33.601
35.054,33.582
35.213,33.566
35.374,33.551
35.534,33.54
35.692,33.531
35.843,33.524
35.987,33.52
36.12,33.519
36.242,33.518
36.352,33.519
36.448,33.52
36.53,33.521
36.599,33.521
36.654,33.521
36.697,33.52
36.728,33.518
36.747,33.515
36.757,33.51
36.758,33.504
36.751,33.497
36.738,33.489
36.72,33.481
36.698,33.474
36.674,33.469
36.647,33.468
36.619,33.474
36.589,33.49
36.559,33.519
36.528,33.563
36.496,33.626
36.464,33.71
36.432,33.817
36.401,33.949
36.369,34.105
36.337,34.287
36.305,34.493
36.271,34.722
36.236,34.97
36.201,35.234
36.163,35.511
36.125,35.796
36.085,36.084
36.043,36.372
36.001,36.656
35.959,36.931
35.918,37.194
35.877,37.441
35.837,37.668
35.799,37.873
35.763,38.054
35.729,38.211
35.697,38.34
35.667,38.444
35.64,38.523
35.616,38.577
35.594,38.61
35.576,38.622
35.561,38.616
35.549,38.595
35.54,38.56
35.533,38.515
35.529,38.461
35.527,38.399
35.526,38.332
35.526,38.261
35.527,38.187
35.529,38.112
35.531,38.035
35.534,37.958
35.536,37.881
35.538,37.804
35.541,37.729
35.543,37.655
35.544,37.583
35.544,37.514
35.543,37.446
35.541,37.382
35.537,37.32
35.532,37.26
35.525,37.203
35.517,37.148
35.509,37.094
35.499,37.041
35.488,36.989
35.476,36.937
35.462,36.885
35.447,36.833
35.43,36.781
35.411,36.728
35.39,36.675
35.367,36.623
35.342,36.571
35.315,36.52
35.286,36.472
35.256,36.426
35.226,36.384
35.194,36.346
35.163,36.312
35.133,36.283
35.103,36.26
35.074,36.241
35.045,36.228
35.018,36.218
34.992,36.212
34.967,36.21
34.943,36.211
34.921,36.214
34.9,36.22
34.881,36.227
34.864,36.235
34.847,36.244
34.831,36.252
34.815,36.261
34.798,36.268
34.781,36.273
34.763,36.277
34.744,36.278
34.724,36.277
34.705,36.274
34.686,36.267
34.667,36.258
34.649,36.245
34.632,36.228
34.616,36.208
34.602,36.183
34.588,36.154
34.576,36.12
34.566,36.082
34.558,36.041
34.552,35.996
34.551,35.949
34.555,35.9
34.566,35.85
34.584,35.798
34.613,35.744
34.652,35.69
34.704,35.634
34.77,35.578
34.848,35.521
34.941,35.463
35.048,35.406
35.167,35.349
35.298,35.294
35.439,35.24
35.588,35.187
35.742,35.137
35.899,35.087
36.056,35.039
36.211,34.993
36.36,34.947
36.502,34.903
36.636,34.86
36.758,34.819
36.869,34.78
36.967,34.742
37.052,34.707
37.124,34.673
37.183,34.641
37.229,34.61
37.262,34.58
37.285,34.55
37.297,34.522
37.299,34.493
37.293,34.465
37.279,34.437
37.259,34.409
37.233,34.381
37.203,34.353
37.169,34.325
37.133,34.296
37.095,34.268
37.057,34.24
37.02,34.211
36.983,34.181
36.947,34.151
36.913,34.121
36.88,34.09
36.849,34.06
36.819,34.029
36.791,33.999
36.762,33.969
36.734,33.939
36.706,33.909
36.678,33.878
36.649,33.847
36.619,33.816
36.587,33.784
36.554,33.752
36.519,33.719
36.482,33.685
36.443,33.651
36.403,33.616
36.363,33.582
36.323,33.55
36.284,33.518
36.247,33.488
36.213,33.459
36.181,33.432
36.153,33.407
36.127,33.385
36.105,33.366
36.085,33.352
36.069,33.344
36.056,33.342
36.046,33.35
36.039,33.367
36.035,33.397
36.033,33.441
36.035,33.501
36.039,33.578
36.045,33.674
36.053,33.789
36.061,33.924
36.069,34.08
36.076,34.255
36.083,34.45
36.087,34.661
36.09,34.886
36.09,35.123
36.088,35.369
36.083,35.619
36.077,35.872
36.068,36.122
36.057,36.366
36.045,36.601
36.03,36.824
36.014,37.031
35.995,37.22
35.975,37.39
35.952,37.539
35.928,37.667
35.901,37.773
35.873,37.857
35.844,37.92
35.813,37.964
35.781,37.988
35.748,37.996
35.714,37.989
35.68,37.968
35.646,37.935
35.612,37.89
35.579,37.837
35.546,37.777
35.515,37.711
35.484,37.641
35.454,37.568
35.425,37.494
35.398,37.421
35.371,37.348
35.346,37.278
35.322,37.209
35.3,37.144
35.278,37.083
35.258,37.024
35.238,36.969
35.218,36.917
35.198,36.866
35.178,36.816
35.157,36.766
35.137,36.716
35.117,36.666
35.096,36.615
35.075,36.563
35.054,36.51
35.033,36.456
35.013,36.401
34.993,36.345
34.974,36.29
34.955,36.236
34.936,36.184
34.918,36.134
34.901,36.086
34.885,36.041
34.871,35.999
34.862,35.96
34.859,35.924
34.863,35.893
34.876,35.867
34.9,35.845
34.936,35.829
34.985,35.817
35.048,35.81
35.126,35.808
35.218,35.811
35.326,35.819
35.447,35.83
35.581,35.845
35.724,35.862
35.876,35.882
36.033,35.902
36.191,35.923
36.35,35.944
36.505,35.964
36.654,35.983
36.795,36
36.926,36.015
37.046,36.029
37.154,36.039
37.25,36.045
37.332,36.047
37.401,36.045
37.457,36.037
37.501,36.026
37.532,36.01
37.552,35.99
37.56,35.965
37.559,35.937
37.549,35.904
37.532,35.868
37.509,35.828
37.481,35.786
37.45,35.741
37.417,35.694
37.383,35.646
37.348,35.597
37.313,35.549
37.278,35.501
37.243,35.454
37.209,35.406
37.175,35.36
37.141,35.313
37.107,35.267
37.072,35.22
37.037,35.174
37.002,35.128
36.966,35.083
36.929,35.037
36.891,34.992
36.852,34.948
36.811,34.904
36.769,34.862
36.725,34.819
36.68,34.778
36.634,34.738
36.587,34.7
36.541,34.663
36.494,34.627
36.449,34.594
36.405,34.562
36.364,34.532
36.326,34.502
36.292,34.474
36.262,34.446
36.236,34.419
36.215,34.392
36.197,34.365
36.184,34.34
36.174,34.317
36.167,34.295
36.163,34.274
36.163,34.256
36.165,34.238
36.168,34.221
36.174,34.205
36.181,34.19
36.188,34.176
36.195,34.161
36.203,34.147
36.21,34.133
36.216,34.119
36.221,34.105
36.224,34.091
36.223,34.077
36.221,34.063
36.215,34.048
36.206,34.033
36.193,34.017
36.178,34.001
36.159,33.985
36.138,33.968
36.114,33.952
36.089,33.936
36.062,33.919
36.035,33.904
36.007,33.891
35.979,33.881
35.951,33.874
35.922,33.871
35.894,33.875
35.865,33.887
35.836,33.909
35.807,33.942
35.777,33.99
35.745,34.054
35.713,34.135
35.68,34.235
35.646,34.355
35.611,34.495
35.576,34.656
35.54,34.836
35.503,35.034
35.467,35.248
35.43,35.476
35.394,35.715
35.358,35.961
35.322,36.211
35.288,36.46
35.253,36.706
35.218,36.944
35.183,37.172
35.148,37.387
35.113,37.586
35.077,37.769
35.042,37.933
35.006,38.078
34.97,38.203
34.935,38.308
34.9,38.392
34.865,38.456
34.83,38.5
34.795,38.525
34.761,38.533
34.727,38.525
34.693,38.502
34.66,38.467
34.628,38.42
34.597,38.363
34.567,38.3
34.54,38.231
34.515,38.158
34.494,38.082
34.478,38.006
34.469,37.929
34.468,37.853
34.477,37.778
34.497,37.706
34.53,37.637
34.577,37.57
34.638,37.506
34.714,37.446
34.804,37.388
34.907,37.332
35.023,37.278
35.148,37.225
35.283,37.174
35.423,37.123
35.568,37.071
35.714,37.019
35.86,36.967
36.002,36.913
36.14,36.858
36.271,36.801
36.393,36.744
36.505,36.686
36.605,36.629
36.693,36.571
36.767,36.515
36.829,36.461
36.877,36.41
36.912,36.363
36.934,36.319
36.945,36.28
36.945,36.246
36.935,36.217
36.916,36.193
36.889,36.175
36.855,36.162
36.815,36.153
36.771,36.148
36.722,36.146
36.671,36.148
36.618,36.151
36.563,36.156
36.507,36.163
36.451,36.17
36.394,36.177
36.337,36.184
36.281,36.192
36.225,36.198
36.169,36.203
36.114,36.207
36.059,36.209
36.004,36.209
35.949,36.206
35.894,36.201
35.839,36.193
35.785,36.181
35.73,36.166
35.676,36.147
35.623,36.125
35.571,36.1
35.52,36.071
35.47,36.039
35.422,36.004
35.375,35.966
35.331,35.924
35.29,35.881
35.251,35.835
35.216,35.788
35.184,35.74
35.155,35.69
35.129,35.64
35.107,35.589
35.087,35.537
35.07,35.486
35.055,35.436
35.043,35.386
35.032,35.337
35.022,35.289
35.014,35.242
35.006,35.195
34.998,35.148
34.989,35.102
34.98,35.057
34.969,35.012
34.957,34.968
34.944,34.925
34.93,34.881
34.913,34.838
34.896,34.796
34.877,34.754
34.856,34.713
34.834,34.672
34.812,34.633
34.788,34.594
34.765,34.556
34.741,34.519
34.718,34.482
34.694,34.446
34.672,34.411
34.65,34.378
34.628,34.345
34.608,34.314
34.588,34.284
34.569,34.255
34.552,34.228
34.534,34.2
34.517,34.174
34.501,34.147
34.485,34.119
34.469,34.091
34.452,34.063
34.436,34.034
34.42,34.005
34.404,33.977
34.388,33.948
34.372,33.919
34.355,33.891
34.339,33.863
34.321,33.835
34.304,33.807
34.285,33.779
34.267,33.751
34.247,33.724
34.226,33.696
34.204,33.669
34.182,33.642
34.159,33.614
34.135,33.587
34.111,33.562
34.087,33.539
34.063,33.521
34.039,33.509
34.016,33.505
33.993,33.51
33.97,33.528
33.948,33.561
33.926,33.61
33.905,33.678
33.886,33.767
33.867,33.876
33.852,34.008
33.84,34.162
33.833,34.338
33.833,34.533
33.841,34.747
33.859,34.977
33.889,35.219
33.932,35.471
33.989,35.73
34.062,35.993
34.151,36.254
34.255,36.511
34.374,36.76
34.507,36.998
34.653,37.222
34.809,37.428
34.973,37.615
35.144,37.781
35.318,37.925
35.495,38.046
35.67,38.143
35.841,38.218
36.006,38.271
36.163,38.304
36.309,38.319
36.443,38.316
36.563,38.297
36.67,38.264
36.762,38.218
36.839,38.161
36.902,38.096
36.95,38.023
36.984,37.944
37.005,37.861
37.014,37.776
37.012,37.69
37.001,37.603
36.981,37.517
36.955,37.432
36.923,37.349
36.887,37.267
36.848,37.189
36.807,37.112
36.763,37.036
36.719,36.962
36.674,36.889
36.63,36.815
36.587,36.742
36.545,36.668
36.505,36.595
36.466,36.521
36.428,36.448
36.39,36.375
36.352,36.302
36.313,36.229
36.272,36.157
36.228,36.084
36.183,36.012
36.135,35.941
36.086,35.872
36.035,35.805
35.983,35.741
35.932,35.682
35.881,35.627
35.832,35.578
35.785,35.534
35.741,35.495
35.699,35.463
35.661,35.436
35.627,35.415
35.596,35.399
35.57,35.389
35.549,35.383
35.532,35.381
35.52,35.382
35.513,35.386
35.511,35.391
35.513,35.396
35.518,35.401
35.527,35.404
35.538,35.406
35.552,35.406
35.566,35.402
35.582,35.396
35.598,35.386
35.613,35.375
35.627,35.361
35.64,35.345
35.65,35.327
35.659,35.306
35.666,35.283
35.671,35.258
35.674,35.231
35.675,35.202
35.674,35.17
35.671,35.135
35.665,35.098
35.656,35.059
35.645,35.016
35.632,34.97
35.617,34.921
35.601,34.869
35.584,34.814
35.565,34.755
35.545,34.694
35.525,34.631
35.503,34.567
35.48,34.501
35.456,34.436
35.431,34.372
35.406,34.307
35.38,34.243
35.354,34.179
35.329,34.115
35.304,34.052
35.278,33.99
35.253,33.928
35.228,33.868
35.203,33.808
35.178,33.749
35.153,33.692
35.128,33.637
35.104,33.583
35.079,33.531
35.055,33.481
35.031,33.432
35.007,33.385
34.984,33.341
34.962,33.299
34.94,33.26
34.92,33.223
34.901,33.188
34.882,33.155
34.865,33.124
34.847,33.095
34.83,33.066
34.814,33.037
34.797,33.008
34.782,32.978
34.769,32.948
34.758,32.917
34.751,32.886
34.748,32.853
34.753,32.821
34.765,32.788
34.786,32.757
34.818,32.726
34.862,32.697
34.92,32.669
34.992,32.641
35.079,32.614
35.181,32.588
35.298,32.562
35.428,32.536
35.571,32.51
35.725,32.484
35.887,32.459
36.055,32.434
36.226,32.411
36.399,32.39
36.57,32.371
36.738,32.358
36.899,32.349
37.052,32.348
37.195,32.356
37.325,32.374
37.442,32.406
37.544,32.453
37.631,32.516
37.703,32.598
37.76,32.701
37.803,32.824
37.833,32.967
37.85,33.131
37.856,33.315
37.851,33.515
37.838,33.731
37.817,33.959
37.789,34.196
37.757,34.438
37.721,34.681
37.682,34.922
37.64,35.159
37.596,35.387
37.551,35.604
37.504,35.806
37.458,35.993
37.411,36.161
37.364,36.308
37.318,36.435
37.272,36.54
37.227,36.624
37.181,36.687
37.135,36.73
37.089,36.754
37.043,36.761
36.995,36.752
36.947,36.729
36.898,36.694
36.848,36.647
36.798,36.591
36.747,36.527
36.697,36.457
36.647,36.381
36.598,36.3
36.549,36.216
36.503,36.13
36.459,36.043
36.417,35.955
36.379,35.867
36.343,35.78
36.311,35.695
36.282,35.611
36.257,35.53
36.236,35.451
36.217,35.375
36.202,35.301
36.19,35.23
36.181,35.162
36.174,35.095
36.169,35.031
36.167,34.968
36.166,34.906
36.166,34.845
36.168,34.784
36.17,34.722
36.174,34.661
36.178,34.6
36.182,34.539
36.185,34.479
36.188,34.421
36.189,34.366
36.188,34.313
36.184,34.264
36.179,34.22
36.171,34.179
36.161,34.144
36.149,34.115
36.134,34.091
36.117,34.073
36.097,34.061
36.073,34.055
36.047,34.054
36.017,34.059
35.986,34.069
35.952,34.083
35.917,34.101
35.881,34.122
35.845,34.145
35.808,34.17
35.772,34.196
35.736,34.222
35.701,34.247
35.666,34.27
35.632,34.291
35.6,34.309
35.568,34.324
35.538,34.336
35.509,34.346
35.482,34.352
35.456,34.355
35.43,34.355
35.405,34.351
35.379,34.345
35.354,34.334
35.329,34.321
35.303,34.303
35.276,34.282
35.248,34.257
35.219,34.229
35.19,34.196
35.159,34.161
35.128,34.124
35.097,34.084
35.064,34.044
35.032,34.003
34.998,33.962
34.966,33.921
34.934,33.881
34.905,33.842
34.879,33.805
34.857,33.769
34.841,33.736
34.833,33.704
34.834,33.673
34.847,33.644
34.872,33.615
34.91,33.587
34.963,33.559
35.031,33.53
35.115,33.502
35.214,33.473
35.328,33.443
35.455,33.414
35.594,33.385
35.744,33.356
35.9,33.328
36.062,33.3
36.225,33.272
36.388,33.245
36.547,33.218
36.7,33.193
36.845,33.168
36.979,33.144
37.1,33.122
37.208,33.101
37.301,33.082
37.378,33.063
37.44,33.046
37.486,33.029
37.518,33.013
37.536,32.998
37.542,32.983
37.537,32.969
37.522,32.954
37.499,32.939
37.468,32.924
37.432,32.908
37.391,32.892
37.345,32.875
37.296,32.857
37.245,32.839
37.192,32.82
37.137,32.801
37.082,32.782
37.026,32.764
36.97,32.747
36.915,32.731
36.859,32.717
36.804,32.705
36.749,32.696
36.694,32.69
36.639,32.689
36.583,32.694
36.527,32.707
36.471,32.73
36.414,32.765
36.357,32.815
36.3,32.883
36.242,32.97
36.185,33.077
36.129,33.207
36.074,33.358
36.02,33.531
35.968,33.723
35.917,33.933
35.869,34.157
35.823,34.394
35.781,34.64
35.741,34.89
35.705,35.141
35.672,35.389
35.642,35.631
35.615,35.863
35.591,36.082
35.57,36.285
35.551,36.471
35.534,36.638
35.52,36.785
35.507,36.911
35.495,37.017
35.486,37.103
35.477,37.17
35.47,37.218
35.464,37.249
35.459,37.265
35.454,37.267
35.449,37.256
35.442,37.234
35.435,37.203
35.425,37.163
35.413,37.117
35.398,37.064
35.382,37.008
35.363,36.947
35.341,36.884
35.318,36.819
35.293,36.753
35.266,36.687
35.237,36.621
35.207,36.555
35.175,36.49
35.143,36.427
35.109,36.365
35.075,36.306
35.04,36.248
35.005,36.192
34.971,36.138
34.938,36.084
34.906,36.031
34.874,35.978
34.844,35.925
34.813,35.87
34.784,35.815
34.754,35.759
34.724,35.701
34.695,35.641
34.665,35.581
34.635,35.519
34.604,35.458
34.573,35.397
34.541,35.337
34.508,35.279
34.476,35.224
34.442,35.172
34.409,35.123
34.376,35.079
34.343,35.038
34.31,35.001
34.278,34.968
34.247,34.94
34.216,34.916
34.187,34.895
34.158,34.879
34.131,34.867
34.106,34.857
34.083,34.851
34.062,34.847
34.045,34.846
34.033,34.848
34.026,34.85
34.027,34.854
34.036,34.858
34.054,34.861
34.085,34.865
34.127,34.867
34.184,34.867
34.254,34.866
34.339,34.863
34.437,34.857
34.55,34.849
34.674,34.838
34.808,34.825
34.951,34.809
35.098,34.792
35.248,34.772
35.398,34.751
35.546,34.729
35.688,34.704
35.824,34.678
35.951,34.65
36.068,34.62
36.173,34.588
36.264,34.555
36.343,34.519
36.408,34.481
36.459,34.441
36.496,34.399
36.522,34.356
36.535,34.313
36.537,34.27
36.529,34.226
36.514,34.183
36.491,34.142
36.464,34.101
36.431,34.062
36.396,34.025
36.357,33.988
36.317,33.953
36.275,33.919
36.232,33.887
36.189,33.855
36.145,33.824
36.1,33.795
36.054,33.766
36.007,33.738
35.959,33.71
35.909,33.683
35.858,33.657
35.804,33.631
35.748,33.607
35.691,33.583
35.631,33.56
35.57,33.538
35.506,33.515
35.441,33.493
35.375,33.471
35.309,33.45
35.242,33.428
35.177,33.406
35.113,33.385
35.05,33.363
34.991,33.342
34.935,33.321
34.883,33.3
34.836,33.28
34.795,33.259
34.758,33.238
34.728,33.219
34.702,33.199
34.682,33.18
34.666,33.161
34.655,33.142
34.649,33.124
34.645,33.105
34.644,33.087
34.644,33.068
34.646,33.051
34.649,33.034
34.652,33.019
34.655,33.006
34.656,32.997
34.656,32.994
34.653,32.998
34.648,33.012
34.641,33.038
34.63,33.076
34.617,33.13
34.6,33.201
34.58,33.289
34.556,33.395
34.53,33.519
34.501,33.661
34.47,33.82
34.437,33.995
34.403,34.183
34.368,34.382
34.333,34.59
34.299,34.804
34.265,35.021
34.232,35.239
34.199,35.453
34.168,35.66
34.136,35.859
34.105,36.047
34.075,36.22
34.045,36.379
34.016,36.521
33.988,36.644
33.96,36.75
33.934,36.836
33.907,36.904
33.881,36.954
33.855,36.987
33.829,37.004
33.803,37.007
33.778,36.999
33.753,36.98
33.728,36.953
33.704,36.919
33.68,36.878
33.656,36.833
33.632,36.784
33.608,36.732
33.585,36.679
33.563,36.624
33.54,36.57
33.518,36.515
33.496,36.46
33.475,36.407
33.453,36.354
33.433,36.303
33.414,36.254
33.397,36.207
33.384,36.161
33.376,36.117
33.374,36.075
33.379,36.035
33.394,35.995
33.421,35.955
33.46,35.915
33.514,35.874
33.582,35.832
33.666,35.79
33.765,35.747
33.88,35.703
34.008,35.658
34.149,35.614
34.302,35.569
34.463,35.526
34.631,35.484
34.802,35.443
34.973,35.405
35.141,35.369
35.303,35.336
35.457,35.306
35.601,35.279
35.734,35.255
35.853,35.235
35.959,35.219
36.049,35.206
36.125,35.197
36.185,35.191
36.231,35.187
36.263,35.187
36.283,35.189
36.291,35.193
36.289,35.198
36.279,35.206
36.262,35.214
36.238,35.222
36.211,35.23
36.18,35.239
36.148,35.246
36.114,35.252
36.081,35.256
36.048,35.258
36.016,35.257
35.985,35.252
35.956,35.244
35.929,35.233
35.903,35.217
35.878,35.198
35.854,35.175
35.83,35.148
35.805,35.119
35.78,35.086
35.754,35.05
35.727,35.012
35.7,34.971
35.671,34.929
35.641,34.886
35.609,34.84
35.577,34.794
35.543,34.747
35.507,34.699
35.471,34.651
35.434,34.604
35.396,34.556
35.358,34.509
35.32,34.462
35.282,34.416
35.246,34.372
35.212,34.328
35.182,34.285
35.154,34.243
35.13,34.203
35.11,34.165
35.094,34.129
35.083,34.094
35.076,34.061
35.074,34.029
35.077,33.999
35.084,33.969
35.095,33.94
35.11,33.912
35.128,33.885
35.148,33.858
35.169,33.833
35.19,33.808
35.21,33.785
35.228,33.762
35.244,33.741
35.257,33.72
35.267,33.7
35.274,33.68
35.277,33.661
35.278,33.642
35.275,33.622
35.271,33.603
35.263,33.584
35.254,33.565
35.242,33.547
35.229,33.531
35.214,33.515
35.197,33.501
35.179,33.487
35.16,33.475
35.14,33.464
35.12,33.452
35.1,33.44
35.08,33.426
35.06,33.412
35.041,33.395
35.022,33.377
35.004,33.357
34.985,33.335
34.966,33.312
34.947,33.288
34.927,33.264
34.906,33.241
34.885,33.219
34.864,33.201
34.842,33.186
34.819,33.178
34.795,33.177
34.771,33.187
34.745,33.208
34.718,33.244
34.69,33.294
34.663,33.362
34.635,33.447
34.607,33.55
34.58,33.671
34.554,33.807
34.53,33.958
34.508,34.123
34.488,34.298
34.471,34.481
34.457,34.67
34.449,34.861
34.446,35.052
34.451,35.239
34.463,35.419
34.485,35.59
34.518,35.751
34.563,35.9
34.62,36.035
34.692,36.155
34.777,36.26
34.876,36.349
34.987,36.422
35.111,36.479
35.245,36.522
35.388,36.551
35.538,36.567
35.692,36.571
35.849,36.564
36.005,36.548
36.159,36.524
36.308,36.493
36.45,36.458
36.582,36.42
36.704,36.379
36.815,36.338
36.913,36.295
36.998,36.252
37.07,36.209
37.13,36.168
37.176,36.127
37.211,36.087
37.235,36.049
37.248,36.012
37.252,35.978
37.247,35.944
37.236,35.912
37.218,35.882
37.196,35.851
37.17,35.822
37.142,35.793
37.113,35.763
37.082,35.732
37.051,35.701
37.02,35.669
36.988,35.635
36.956,35.6
36.924,35.563
36.891,35.525
36.859,35.487
36.826,35.448
36.793,35.411
36.758,35.375
36.722,35.341
36.684,35.311
36.644,35.284
36.601,35.261
36.557,35.243
36.51,35.228
36.462,35.218
36.412,35.211
36.361,35.208
36.309,35.209
36.258,35.212
36.207,35.217
36.159,35.223
36.112,35.23
36.069,35.237
36.028,35.244
35.991,35.252
35.958,35.259
35.929,35.265
35.903,35.27
35.881,35.274
35.861,35.276
35.845,35.276
35.832,35.275
35.82,35.27
35.811,35.264
35.804,35.254
35.798,35.242
35.793,35.226
35.79,35.207
35.787,35.186
35.786,35.162
35.785,35.137
35.784,35.109
35.784,35.08
35.784,35.048
35.783,35.016
35.781,34.982
35.778,34.948
35.773,34.915
35.767,34.883
35.76,34.852
35.751,34.823
35.741,34.794
35.731,34.766
35.72,34.738
35.708,34.709
35.696,34.68
35.682,34.649
35.668,34.617
35.653,34.584
35.636,34.549
35.618,34.513
35.598,34.477
35.578,34.44
35.556,34.404
35.533,34.367
35.51,34.331
35.486,34.296
35.461,34.261
35.436,34.229
35.409,34.198
35.381,34.169
35.353,34.143
35.324,34.118
35.296,34.095
35.267,34.075
35.238,34.055
35.209,34.038
35.181,34.021
35.153,34.005
35.126,33.99
35.099,33.975
35.072,33.96
35.046,33.945
35.02,33.931
34.993,33.915
34.966,33.899
34.939,33.883
34.911,33.865
34.884,33.847
34.858,33.828
34.832,33.808
34.807,33.789
34.784,33.769
34.762,33.749
34.743,33.731
34.727,33.713
34.716,33.695
34.711,33.676
34.712,33.657
34.722,33.638
34.742,33.619
34.773,33.6
34.817,33.582
34.873,33.566
34.944,33.551
35.029,33.538
35.128,33.528
35.24,33.522
35.363,33.519
35.496,33.523
35.637,33.534
35.783,33.553
35.931,33.581
36.08,33.621
36.226,33.674
36.368,33.741
36.503,33.822
36.629,33.918
36.745,34.029
36.849,34.155
36.941,34.293
37.019,34.444
37.083,34.604
37.134,34.77
37.172,34.941
37.198,35.114
37.212,35.285
37.216,35.452
37.21,35.612
37.197,35.764
37.177,35.904
37.152,36.032
37.122,36.146
37.088,36.245
37.051,36.329
37.012,36.399
36.972,36.454
36.93,36.497
36.888,36.526
36.847,36.544
36.805,36.552
36.763,36.551
36.722,36.542
36.682,36.526
36.642,36.503
36.603,36.475
36.564,36.444
36.525,36.409
36.487,36.373
36.448,36.336
36.409,36.298
36.37,36.261
36.331,36.223
36.292,36.186
36.252,36.148
36.213,36.111
36.174,36.074
36.134,36.038
36.095,36.003
36.056,35.969
36.017,35.935
35.979,35.901
35.942,35.868
35.907,35.836
35.874,35.803
35.844,35.769
35.816,35.735
35.79,35.699
35.768,35.663
35.748,35.625
35.732,35.587
35.718,35.548
35.707,35.508
35.698,35.468
35.692,35.428
35.687,35.389
35.684,35.352
35.681,35.317
35.68,35.286
35.678,35.259
35.676,35.235
35.673,35.215
35.67,35.199
35.665,35.187
35.658,35.179
35.65,35.174
35.64,35.172
35.629,35.172
35.616,35.175
35.601,35.179
35.584,35.185
35.566,35.191
35.547,35.198
35.526,35.204
35.504,35.21
35.48,35.215
35.456,35.218
35.431,35.22
35.404,35.221
35.377,35.219
35.349,35.215
35.321,35.209
35.293,35.2
35.265,35.188
35.237,35.174
35.21,35.157
35.183,35.139
35.157,35.119
35.13,35.097
35.104,35.074
35.078,35.05
35.052,35.024
35.026,34.997
35,34.969
34.974,34.939
34.948,34.909
34.921,34.878
34.894,34.846
34.866,34.815
34.838,34.783
34.81,34.751
34.782,34.719
34.754,34.688
34.727,34.658
34.699,34.629
34.67,34.601
34.642,34.574
34.612,34.548
34.582,34.522
34.551,34.497
34.52,34.472
34.49,34.448
34.458,34.424
34.427,34.4
34.396,34.377
34.365,34.354
34.334,34.331
34.305,34.308
34.277,34.286
34.252,34.265
34.231,34.244
34.214,34.224
34.202,34.204
34.198,34.184
34.202,34.164
34.216,34.145
34.242,34.125
34.281,34.106
34.333,34.088
34.401,34.07
34.482,34.052
34.578,34.034
34.688,34.017
34.81,34.001
34.942,33.986
35.082,33.971
35.227,33.957
35.374,33.944
35.52,33.93
35.662,33.917
35.799,33.905
35.928,33.893
36.048,33.882
36.155,33.872
36.251,33.862
36.333,33.853
36.403,33.844
36.458,33.834
36.5,33.825
36.53,33.815
36.547,33.806
36.552,33.796
36.547,33.785
36.534,33.775
36.513,33.764
36.486,33.754
36.455,33.744
36.421,33.737
36.384,33.732
36.346,33.732
36.307,33.739
36.266,33.752
36.226,33.775
36.186,33.808
36.145,33.853
36.105,33.91
36.064,33.981
36.024,34.065
35.983,34.162
35.942,34.271
35.901,34.392
35.861,34.522
35.82,34.66
35.779,34.803
35.739,34.949
35.697,35.096
35.656,35.24
35.613,35.379
35.571,35.512
35.528,35.637
35.485,35.751
35.442,35.853
35.398,35.943
35.354,36.02
35.311,36.083
35.269,36.134
35.227,36.17
35.187,36.194
35.15,36.204
35.115,36.204
35.083,36.193
35.054,36.172
35.028,36.143
35.005,36.107
34.985,36.066
34.968,36.02
34.954,35.971
34.942,35.918
34.932,35.863
34.923,35.807
34.916,35.749
34.909,35.692
34.902,35.634
34.895,35.578
34.887,35.522
34.878,35.466
34.868,35.413
34.856,35.36
34.842,35.309
34.826,35.259
34.808,35.21
34.788,35.162
34.765,35.114
34.74,35.068
34.712,35.022
34.683,34.978
34.652,34.933
34.62,34.89
34.587,34.847
34.553,34.805
34.519,34.763
34.486,34.722
34.454,34.681
34.423,34.641
34.394,34.603
34.366,34.566
34.339,34.53
34.314,34.498
34.289,34.468
34.265,34.441
34.241,34.417
34.217,34.398
34.193,34.383
34.169,34.372
34.145,34.366
34.12,34.364
34.096,34.366
34.072,34.371
34.049,34.379
34.026,34.388
34.003,34.398
33.98,34.409
33.958,34.419
33.936,34.428
33.915,34.436
33.895,34.442
33.875,34.447
33.855,34.45
33.834,34.451
33.813,34.45
33.792,34.447
33.77,34.442
33.748,34.434
33.725,34.425
33.703,34.413
33.68,34.399
33.657,34.384
33.634,34.367
33.612,34.348
33.591,34.328
33.571,34.307
33.552,34.285
33.535,34.262
33.521,34.238
33.511,34.214
33.505,34.189
33.504,34.163
33.511,34.136
33.527,34.108
33.554,34.079
33.592,34.05
33.644,34.021
33.709,33.992
33.788,33.963
33.881,33.935
33.987,33.908
34.107,33.883
34.237,33.858
34.377,33.836
34.524,33.815
34.677,33.795
34.832,33.776
34.988,33.759
35.142,33.742
35.291,33.726
35.434,33.711
35.569,33.696
35.694,33.682
35.807,33.669
35.909,33.656
35.998,33.644
36.075,33.632
36.138,33.622
36.19,33.613
36.231,33.605
36.262,33.598
36.283,33.593
36.295,33.589
36.3,33.586
36.298,33.584
36.29,33.583
36.277,33.582
36.26,33.582
36.241,33.583
36.219,33.583
36.196,33.583
36.173,33.582
36.149,33.58
36.124,33.578
36.099,33.575
36.074,33.571
36.048,33.568
36.022,33.565
35.997,33.562
35.97,33.559
35.944,33.556
35.917,33.554
35.888,33.552
35.859,33.551
35.83,33.552
35.799,33.555
35.767,33.561
35.735,33.572
35.702,33.588
35.669,33.612
35.636,33.645
35.602,33.688
35.57,33.743
35.537,33.81
35.506,33.89
35.476,33.983
35.448,34.089
35.423,34.207
35.4,34.337
35.379,34.477
35.362,34.627
35.347,34.783
35.334,34.944
35.324,35.106
35.316,35.268
35.31,35.428
35.305,35.583
35.301,35.732
35.298,35.872
35.297,36.003
35.296,36.124
35.295,36.233
35.295,36.329
35.294,36.413
35.292,36.484
35.29,36.543
35.287,36.59
35.284,36.626
35.279,36.651
35.274,36.667
35.268,36.673
35.261,36.673
35.254,36.666
35.246,36.653
35.238,36.637
35.23,36.617
35.22,36.593
35.21,36.568
35.199,36.54
35.187,36.51
35.176,36.48
35.164,36.448
35.152,36.417
35.141,36.387
35.129,36.357
35.117,36.327
35.105,36.298
35.092,36.27
35.079,36.241
35.065,36.214
35.05,36.186
35.034,36.158
35.018,36.13
35.001,36.101
34.983,36.072
34.964,36.043
34.945,36.012
34.926,35.981
34.906,35.95
34.885,35.919
34.864,35.889
34.843,35.86
34.821,35.833
34.8,35.807
34.778,35.784
34.757,35.763
34.735,35.744
34.714,35.728
34.694,35.715
34.673,35.704
34.653,35.696
34.632,35.691
34.612,35.689
34.591,35.689
34.571,35.692
34.553,35.697
34.536,35.704
34.521,35.713
34.508,35.723
34.497,35.735
34.489,35.748
34.483,35.762
34.48,35.776
34.482,35.791
34.489,35.804
34.503,35.818
34.526,35.83
34.559,35.841
34.603,35.85
34.661,35.858
34.732,35.863
34.817,35.866
34.915,35.867
35.027,35.866
35.152,35.862
35.288,35.855
35.433,35.845
35.586,35.831
35.743,35.814
35.901,35.793
36.06,35.77
36.215,35.745
36.365,35.718
36.507,35.689
36.641,35.659
36.764,35.627
36.875,35.595
36.975,35.562
37.061,35.528
37.135,35.494
37.196,35.46
37.246,35.426
37.284,35.394
37.312,35.362
37.332,35.331
37.343,35.302
37.348,35.273
37.346,35.245
37.34,35.218
37.33,35.191
37.317,35.165
37.302,35.139
37.285,35.113
37.267,35.089
37.248,35.065
37.229,35.042
37.21,35.019
37.19,34.997
37.17,34.975
37.149,34.954
37.128,34.933
37.106,34.914
37.082,34.894
37.058,34.874
37.032,34.854
37.005,34.833
36.976,34.811
36.943,34.79
36.908,34.768
36.87,34.746
36.828,34.725
36.783,34.705
36.736,34.686
36.687,34.667
36.637,34.65
36.587,34.634
36.537,34.618
36.487,34.602
36.44,34.587
36.394,34.571
36.35,34.555
36.31,34.539
36.272,34.523
36.238,34.507
36.206,34.492
36.178,34.477
36.152,34.464
36.13,34.451
36.11,34.441
36.093,34.433
36.079,34.427
36.066,34.426
36.055,34.429
36.046,34.437
36.038,34.452
36.032,34.476
36.027,34.509
36.022,34.554
36.018,34.611
36.015,34.682
36.011,34.766
36.007,34.864
36.002,34.976
35.996,35.101
35.989,35.238
35.98,35.386
35.97,35.544
35.959,35.71
35.946,35.883
35.931,36.059
35.915,36.238
35.897,36.416
35.877,36.591
35.856,36.76
35.833,36.921
35.809,37.072
35.783,37.211
35.756,37.336
35.73,37.448
35.702,37.545
35.675,37.626
35.647,37.693
35.619,37.745
35.592,37.783
35.564,37.808
35.536,37.821
35.508,37.822
