Trial 3:3back,Trial 5:3back
36.663,36.125
36.645,36.15
36.63,36.173
36.618,36.193
36.61,36.212
36.606,36.229
36.606,36.243
36.61,36.255
36.617,36.266
36.629,36.276
36.645,36.285
36.665,36.294
36.688,36.304
36.715,36.315
36.744,36.326
36.775,36.337
36.806,36.348
36.837,36.359
36.867,36.369
36.894,36.378
36.918,36.384
36.939,36.388
36.955,36.388
36.967,36.385
36.975,36.379
36.979,36.369
36.98,36.356
36.978,36.342
36.973,36.325
36.967,36.308
36.958,36.292
36.946,36.276
36.932,36.261
36.915,36.248
36.895,36.237
36.872,36.227
36.848,36.218
36.822,36.21
36.794,36.203
36.764,36.197
36.733,36.19
36.7,36.182
36.667,36.174
36.632,36.164
36.596,36.153
36.56,36.14
36.523,36.126
36.485,36.112
36.447,36.097
36.408,36.083
36.369,36.071
36.329,36.06
36.288,36.051
36.248,36.045
36.207,36.041
36.165,36.04
36.122,36.041
36.079,36.045
36.036,36.051
35.993,36.059
35.951,36.07
35.91,36.083
35.87,36.099
35.831,36.118
35.794,36.139
35.759,36.162
35.726,36.186
35.694,36.21
35.662,36.233
35.63,36.254
35.597,36.27
35.564,36.28
35.532,36.284
35.499,36.28
35.467,36.267
35.436,36.245
35.407,36.214
35.379,36.175
35.353,36.128
35.329,36.074
35.306,36.014
35.287,35.951
35.271,35.884
35.259,35.815
35.25,35.744
35.244,35.674
35.242,35.604
35.243,35.535
35.246,35.468
35.251,35.402
35.258,35.338
35.265,35.275
35.273,35.215
35.281,35.156
35.289,35.099
35.296,35.045
35.302,34.992
35.307,34.94
35.311,34.891
35.313,34.844
35.313,34.799
35.312,34.757
35.309,34.717
35.304,34.68
35.299,34.647
35.293,34.615
35.289,34.587
35.285,34.56
35.282,34.536
35.279,34.513
35.277,34.491
35.275,34.472
35.272,34.455
35.268,34.442
35.262,34.432
35.254,34.426
35.243,34.425
35.231,34.428
35.219,34.436
35.208,34.447
35.198,34.462
35.191,34.48
35.185,34.501
35.181,34.526
35.177,34.555
35.175,34.587
35.173,34.624
35.173,34.665
35.173,34.711
35.173,34.76
35.173,34.813
35.174,34.867
35.174,34.924
35.174,34.982
35.173,35.038
35.171,35.093
35.167,35.143
35.161,35.189
35.152,35.23
35.141,35.264
35.128,35.292
35.112,35.313
35.095,35.327
35.076,35.336
35.057,35.341
35.036,35.34
35.015,35.337
34.994,35.33
34.973,35.321
34.953,35.31
34.934,35.298
34.915,35.285
34.898,35.271
34.881,35.258
34.864,35.245
34.849,35.234
34.833,35.224
34.816,35.217
34.798,35.213
34.778,35.211
34.756,35.211
34.731,35.214
34.705,35.221
34.677,35.23
34.648,35.243
34.618,35.259
34.588,35.279
34.558,35.303
34.529,35.331
34.501,35.364
34.476,35.401
34.452,35.444
34.431,35.491
34.411,35.543
34.392,35.599
34.375,35.659
34.36,35.72
34.346,35.784
34.336,35.849
34.328,35.916
34.324,35.983
34.324,36.05
34.328,36.116
34.339,36.182
34.359,36.247
34.388,36.31
34.429,36.371
34.483,36.43
34.551,36.485
34.636,36.535
34.737,36.581
34.853,36.62
34.985,36.653
35.13,36.679
35.288,36.697
35.456,36.708
35.632,36.71
35.813,36.704
35.996,36.691
36.179,36.671
36.358,36.645
36.531,36.614
36.695,36.579
36.851,36.54
36.995,36.499
37.128,36.456
37.249,36.412
37.357,36.368
37.453,36.324
37.537,36.281
37.608,36.236
37.667,36.191
37.713,36.143
37.748,36.092
37.773,36.036
37.787,35.974
37.791,35.905
37.786,35.828
37.772,35.743
37.75,35.65
37.721,35.551
37.686,35.445
37.647,35.335
37.606,35.221
37.563,35.105
37.519,34.988
37.476,34.871
37.434,34.756
37.393,34.643
37.354,34.533
37.318,34.427
37.285,34.325
37.254,34.227
37.226,34.134
37.2,34.046
37.176,33.963
37.153,33.887
37.13,33.818
37.107,33.756
37.083,33.703
37.059,33.658
37.034,33.623
37.008,33.597
36.981,33.581
36.953,33.575
36.925,33.577
36.896,33.587
36.867,33.603
36.837,33.625
36.808,33.65
36.78,33.678
36.755,33.706
36.731,33.734
36.71,33.761
36.693,33.785
36.679,33.808
36.67,33.829
36.665,33.848
36.665,33.865
36.67,33.883
36.679,33.901
36.692,33.921
36.708,33.942
36.727,33.967
36.748,33.994
36.772,34.025
36.797,34.058
36.823,34.094
36.849,34.131
36.876,34.169
36.902,34.206
36.926,34.242
36.948,34.275
36.968,34.306
36.986,34.332
37.001,34.355
37.014,34.373
37.024,34.386
37.03,34.396
37.032,34.402
37.031,34.406
37.025,34.407
37.015,34.406
37.001,34.405
36.984,34.403
36.963,34.4
36.939,34.398
36.912,34.397
36.882,34.395
36.851,34.394
36.817,34.393
36.782,34.391
36.746,34.387
36.709,34.382
36.671,34.374
36.634,34.364
36.597,34.349
36.56,34.332
36.524,34.312
36.487,34.289
36.45,34.266
36.413,34.244
36.375,34.223
36.336,34.206
36.297,34.194
36.257,34.189
36.216,34.192
36.175,34.204
36.134,34.227
36.094,34.262
36.054,34.309
36.016,34.367
35.979,34.438
35.945,34.52
35.912,34.614
35.881,34.72
35.851,34.835
35.823,34.961
35.796,35.093
35.769,35.232
35.744,35.376
35.72,35.523
35.696,35.671
35.674,35.818
35.653,35.963
35.634,36.104
35.616,36.239
35.599,36.366
35.582,36.484
35.567,36.591
35.552,36.686
35.538,36.765
35.523,36.829
35.507,36.874
35.49,36.899
35.472,36.904
35.451,36.888
35.429,36.851
35.407,36.793
35.385,36.717
35.362,36.624
35.339,36.517
35.315,36.399
35.293,36.273
35.272,36.142
35.253,36.01
35.237,35.88
35.222,35.753
35.211,35.633
35.201,35.52
35.195,35.415
35.191,35.318
35.189,35.23
35.189,35.149
35.19,35.074
35.191,35.005
35.192,34.94
35.191,34.881
35.188,34.825
35.183,34.773
35.174,34.724
35.161,34.677
35.144,34.632
35.125,34.586
35.103,34.539
35.078,34.489
35.052,34.434
35.024,34.373
34.997,34.305
34.969,34.229
34.941,34.145
34.913,34.052
34.885,33.952
34.859,33.844
34.834,33.729
34.81,33.611
34.789,33.489
34.769,33.368
34.751,33.249
34.735,33.136
34.72,33.034
34.707,32.946
34.694,32.877
34.681,32.832
34.669,32.812
34.657,32.819
34.645,32.855
34.633,32.917
34.621,33.003
34.61,33.11
34.598,33.232
34.586,33.364
34.574,33.499
34.56,33.631
34.546,33.754
34.53,33.864
34.513,33.958
34.496,34.032
34.479,34.086
34.461,34.121
34.443,34.139
34.424,34.144
34.405,34.138
34.385,34.125
34.366,34.108
34.346,34.091
34.326,34.077
34.307,34.067
34.287,34.063
34.268,34.065
34.249,34.073
34.23,34.088
34.212,34.108
34.196,34.133
34.182,34.161
34.17,34.191
34.163,34.222
34.161,34.252
34.165,34.28
34.179,34.305
34.203,34.325
34.238,34.341
34.286,34.351
34.347,34.356
34.424,34.358
34.517,34.355
34.625,34.35
34.748,34.342
34.886,34.332
35.036,34.32
35.197,34.307
35.368,34.292
35.546,34.277
35.728,34.26
35.914,34.242
36.1,34.223
36.284,34.203
36.464,34.183
36.638,34.164
36.804,34.145
36.961,34.127
37.106,34.112
37.239,34.098
37.357,34.088
37.459,34.08
37.545,34.075
37.616,34.073
37.673,34.075
37.717,34.08
37.749,34.087
37.77,34.097
37.781,34.107
37.784,34.118
37.78,34.129
37.77,34.139
37.755,34.149
37.735,34.158
37.711,34.166
37.683,34.173
37.652,34.178
37.619,34.183
37.583,34.188
37.546,34.192
37.509,34.196
37.472,34.202
37.435,34.208
37.4,34.218
37.366,34.229
37.334,34.245
37.302,34.264
37.271,34.287
37.24,34.314
37.209,34.344
37.179,34.377
37.151,34.412
37.124,34.449
37.098,34.486
37.073,34.523
37.049,34.559
37.026,34.593
37.003,34.625
36.98,34.654
36.956,34.679
36.932,34.7
36.907,34.717
36.881,34.728
36.855,34.735
36.829,34.738
36.803,34.737
36.777,34.732
36.752,34.726
36.73,34.717
36.709,34.708
36.691,34.697
36.678,34.687
36.668,34.676
36.663,34.666
36.663,34.657
36.668,34.649
36.677,34.643
36.691,34.639
36.709,34.638
36.73,34.64
36.752,34.645
36.776,34.655
36.801,34.67
36.825,34.691
36.85,34.719
36.872,34.754
36.893,34.796
36.911,34.846
36.926,34.904
36.937,34.968
36.945,35.037
36.95,35.11
36.951,35.185
36.948,35.26
36.943,35.334
36.934,35.404
36.922,35.469
36.907,35.528
36.888,35.58
36.865,35.624
36.84,35.658
36.813,35.684
36.783,35.701
36.752,35.709
36.718,35.71
36.682,35.703
36.646,35.689
36.608,35.67
36.569,35.645
36.53,35.616
36.489,35.583
36.448,35.548
36.406,35.512
36.364,35.474
36.322,35.436
36.279,35.398
36.236,35.36
36.191,35.324
36.147,35.289
36.102,35.255
36.057,35.223
36.013,35.194
35.97,35.166
35.929,35.139
35.889,35.115
35.85,35.093
35.813,35.073
35.776,35.055
35.741,35.038
35.706,35.023
35.673,35.009
35.642,34.997
35.613,34.984
35.586,34.972
35.559,34.96
35.534,34.947
35.509,34.932
35.484,34.916
35.459,34.897
35.433,34.877
35.404,34.855
35.375,34.832
35.343,34.808
35.309,34.784
35.275,34.761
35.241,34.739
35.208,34.718
35.175,34.7
35.144,34.685
35.112,34.672
35.082,34.663
35.052,34.656
35.023,34.653
34.995,34.652
34.968,34.655
34.942,34.659
34.916,34.666
34.891,34.676
34.867,34.688
34.842,34.703
34.818,34.719
34.793,34.738
34.768,34.758
34.742,34.78
34.716,34.803
34.689,34.826
34.661,34.85
34.634,34.874
34.607,34.9
34.58,34.926
34.554,34.953
34.528,34.98
34.502,35.007
34.476,35.032
34.45,35.057
34.424,35.079
34.397,35.101
34.37,35.122
34.343,35.142
34.316,35.161
34.29,35.179
34.264,35.195
34.239,35.209
34.216,35.221
34.194,35.231
34.175,35.238
34.157,35.243
34.141,35.245
34.128,35.245
34.118,35.245
34.11,35.242
34.105,35.239
34.102,35.235
34.101,35.231
34.102,35.225
34.105,35.217
34.108,35.208
34.113,35.198
34.117,35.186
34.122,35.173
34.126,35.159
34.128,35.144
34.129,35.128
34.129,35.111
34.126,35.093
34.122,35.075
34.118,35.057
34.112,35.038
34.106,35.019
34.099,35
34.092,34.981
34.084,34.963
34.076,34.946
34.067,34.928
34.058,34.912
34.047,34.897
34.035,34.882
34.023,34.868
34.011,34.856
33.999,34.845
33.989,34.835
33.98,34.826
33.975,34.818
33.973,34.812
33.977,34.807
33.988,34.803
34.008,34.801
34.038,34.8
34.079,34.802
34.134,34.805
34.205,34.81
34.29,34.816
34.393,34.824
34.513,34.834
34.65,34.844
34.802,34.856
34.969,34.868
35.149,34.882
35.338,34.897
35.536,34.912
35.738,34.929
35.941,34.947
36.143,34.966
36.34,34.986
36.53,35.006
36.711,35.026
36.883,35.046
37.042,35.066
37.188,35.087
37.319,35.108
37.436,35.132
37.536,35.158
37.621,35.187
37.689,35.221
37.743,35.261
37.782,35.307
37.808,35.359
37.823,35.418
37.826,35.482
37.82,35.551
37.805,35.623
37.783,35.697
37.754,35.77
37.721,35.841
37.683,35.909
37.642,35.973
37.598,36.032
37.554,36.085
37.508,36.131
37.462,36.169
37.417,36.199
37.372,36.221
37.329,36.234
37.289,36.239
37.25,36.237
37.215,36.226
37.182,36.209
37.152,36.185
37.124,36.155
37.1,36.119
37.078,36.078
37.058,36.034
37.04,35.986
37.023,35.935
37.005,35.883
36.987,35.83
36.967,35.778
36.946,35.727
36.923,35.677
36.896,35.63
36.866,35.586
36.833,35.544
36.797,35.506
36.758,35.469
36.719,35.435
36.679,35.403
36.642,35.372
36.606,35.344
36.574,35.316
36.545,35.29
36.52,35.265
36.499,35.24
36.483,35.215
36.471,35.191
36.463,35.167
36.458,35.143
36.455,35.119
36.454,35.096
36.455,35.074
36.457,35.052
36.458,35.031
36.46,35.012
36.459,34.995
36.457,34.98
36.452,34.968
36.444,34.958
36.432,34.951
36.415,34.948
36.392,34.948
36.362,34.951
36.325,34.958
36.28,34.967
36.226,34.979
36.164,34.993
36.093,35.008
36.015,35.024
35.928,35.041
35.834,35.058
35.731,35.074
35.622,35.09
35.506,35.105
35.385,35.119
35.262,35.134
35.139,35.148
35.02,35.162
34.907,35.177
34.803,35.192
34.711,35.209
34.633,35.226
34.571,35.243
34.524,35.26
34.494,35.276
34.479,35.292
34.479,35.306
34.493,35.319
34.518,35.329
34.554,35.336
34.597,35.34
34.644,35.341
34.694,35.339
34.744,35.333
34.791,35.325
34.834,35.315
34.872,35.302
34.904,35.287
34.928,35.271
34.946,35.252
34.957,35.232
34.963,35.21
34.966,35.188
34.967,35.165
34.968,35.141
34.971,35.117
34.976,35.094
34.986,35.071
35,35.048
35.018,35.026
35.042,35.004
35.07,34.983
35.101,34.962
35.135,34.944
35.169,34.929
35.202,34.917
35.232,34.909
35.258,34.905
35.28,34.904
35.297,34.907
35.306,34.913
35.31,34.92
35.308,34.93
35.302,34.941
35.295,34.952
35.289,34.964
35.284,34.976
35.282,34.987
35.285,34.998
35.29,35.008
35.298,35.017
35.307,35.025
35.314,35.032
35.318,35.039
35.315,35.045
35.305,35.051
35.286,35.057
35.259,35.062
35.225,35.067
35.186,35.071
35.147,35.075
35.11,35.078
35.08,35.081
35.057,35.083
35.046,35.084
35.045,35.086
35.056,35.088
35.076,35.091
35.103,35.095
35.132,35.101
35.161,35.108
35.186,35.115
35.203,35.123
35.211,35.13
35.206,35.138
35.189,35.145
35.157,35.152
35.112,35.158
35.054,35.164
34.984,35.17
34.905,35.177
34.819,35.184
34.727,35.194
34.632,35.206
34.535,35.222
34.44,35.242
34.349,35.268
34.263,35.301
34.185,35.342
34.116,35.391
34.057,35.448
34.01,35.513
33.974,35.585
33.951,35.665
33.94,35.75
33.939,35.839
33.947,35.93
33.963,36.021
33.984,36.112
34.007,36.198
34.031,36.28
34.054,36.354
34.074,36.42
34.089,36.476
34.098,36.522
34.101,36.558
34.095,36.581
34.083,36.593
34.066,36.594
34.045,36.583
34.022,36.562
33.999,36.532
33.98,36.494
33.966,36.45
33.961,36.401
33.967,36.348
33.987,36.293
34.023,36.237
34.076,36.18
34.149,36.124
34.24,36.069
34.35,36.014
34.477,35.961
34.621,35.911
34.777,35.863
34.945,35.818
35.12,35.776
35.301,35.738
35.483,35.702
35.664,35.668
35.842,35.638
36.014,35.609
36.178,35.582
36.333,35.557
36.478,35.532
36.61,35.509
36.729,35.486
36.834,35.465
36.925,35.444
37.001,35.423
37.063,35.403
37.112,35.384
37.149,35.366
37.172,35.347
37.184,35.33
37.185,35.313
37.175,35.298
37.157,35.283
37.131,35.27
37.099,35.259
37.062,35.249
37.02,35.241
36.976,35.236
36.93,35.233
36.882,35.232
36.833,35.234
36.785,35.239
36.736,35.245
36.688,35.254
36.642,35.264
36.597,35.276
36.554,35.289
36.512,35.302
36.473,35.315
36.436,35.329
36.401,35.343
36.368,35.357
36.336,35.37
36.304,35.383
36.272,35.395
36.239,35.407
36.206,35.417
36.171,35.425
36.134,35.433
36.095,35.438
36.054,35.442
36.011,35.443
35.967,35.443
35.922,35.441
35.877,35.436
35.832,35.43
35.788,35.421
35.745,35.409
35.705,35.395
35.668,35.379
35.636,35.362
35.61,35.342
35.589,35.321
35.575,35.299
35.568,35.276
35.568,35.252
35.577,35.228
35.594,35.204
35.619,35.18
35.653,35.157
35.694,35.134
35.74,35.113
35.791,35.092
35.845,35.072
35.901,35.053
35.957,35.036
36.011,35.021
36.062,35.009
36.109,34.998
36.15,34.99
36.185,34.983
36.213,34.977
36.234,34.972
36.246,34.969
36.25,34.965
36.247,34.963
36.236,34.96
36.218,34.958
36.192,34.957
36.159,34.958
36.12,34.959
36.076,34.962
36.028,34.967
35.978,34.974
35.926,34.984
35.873,34.996
35.82,35.011
35.768,35.028
35.718,35.046
35.669,35.067
35.622,35.088
35.578,35.109
35.536,35.131
35.496,35.152
35.457,35.172
35.42,35.191
35.385,35.209
35.353,35.224
35.323,35.238
35.296,35.249
35.272,35.258
35.25,35.265
35.231,35.27
35.214,35.273
35.198,35.276
35.181,35.278
35.163,35.279
35.142,35.281
35.118,35.282
35.09,35.283
35.059,35.284
35.024,35.286
34.984,35.287
34.941,35.287
34.895,35.287
34.847,35.286
34.798,35.284
34.748,35.281
34.699,35.276
34.652,35.271
34.605,35.265
34.56,35.26
34.518,35.256
34.478,35.254
34.441,35.256
34.406,35.263
34.375,35.276
34.346,35.298
34.32,35.329
34.296,35.369
34.275,35.42
34.255,35.482
34.239,35.554
34.224,35.634
34.211,35.721
34.199,35.813
34.189,35.906
34.179,35.998
34.169,36.087
34.158,36.17
34.147,36.245
34.136,36.312
34.123,36.369
34.108,36.416
34.092,36.451
34.075,36.475
34.057,36.487
34.038,36.487
34.018,36.476
33.996,36.456
33.973,36.426
33.949,36.389
33.924,36.345
33.898,36.297
33.872,36.244
33.844,36.189
33.817,36.133
33.79,36.077
33.763,36.021
33.737,35.967
33.711,35.915
33.686,35.865
33.661,35.818
33.638,35.774
33.615,35.733
33.592,35.694
33.571,35.658
33.549,35.624
33.528,35.594
33.506,35.565
33.483,35.539
33.46,35.515
33.437,35.493
33.414,35.473
33.391,35.454
33.37,35.436
33.35,35.419
33.331,35.402
33.313,35.385
33.296,35.368
33.282,35.351
33.27,35.333
33.259,35.314
33.252,35.294
33.247,35.273
33.244,35.252
33.243,35.23
33.243,35.207
33.244,35.185
33.247,35.164
33.25,35.145
33.255,35.129
33.261,35.116
33.268,35.106
33.279,35.099
33.294,35.094
33.314,35.092
33.34,35.092
33.375,35.094
33.418,35.098
33.472,35.103
33.537,35.111
33.614,35.121
33.702,35.132
33.802,35.145
33.911,35.158
34.03,35.171
34.156,35.184
34.288,35.196
34.424,35.207
34.562,35.217
34.699,35.226
34.835,35.234
34.965,35.242
35.089,35.248
35.203,35.254
35.307,35.258
35.4,35.261
35.482,35.263
35.551,35.264
35.609,35.263
35.656,35.26
35.692,35.256
35.72,35.25
35.738,35.243
35.75,35.234
35.755,35.223
35.757,35.211
35.754,35.197
35.748,35.182
35.739,35.166
35.726,35.149
35.71,35.131
35.691,35.112
35.667,35.092
35.64,35.071
35.607,35.049
35.57,35.027
35.529,35.004
35.485,34.98
35.437,34.957
35.386,34.935
35.335,34.913
35.282,34.892
35.229,34.873
35.178,34.856
35.127,34.842
35.078,34.829
35.03,34.819
34.984,34.812
34.94,34.807
34.896,34.805
34.854,34.804
34.812,34.805
34.772,34.808
34.734,34.811
34.698,34.815
34.664,34.818
34.632,34.82
34.603,34.822
34.577,34.821
34.555,34.819
34.537,34.815
34.522,34.809
34.511,34.801
34.504,34.791
34.502,34.781
34.504,34.769
34.511,34.758
34.522,34.747
34.538,34.737
34.558,34.727
34.581,34.719
34.608,34.711
34.638,34.705
34.671,34.7
34.706,34.697
34.745,34.695
34.784,34.695
34.824,34.695
34.862,34.697
34.896,34.7
34.925,34.704
34.947,34.71
34.962,34.716
34.969,34.725
34.968,34.734
34.96,34.744
34.945,34.754
34.925,34.764
34.899,34.774
34.868,34.783
34.834,34.79
34.798,34.796
34.761,34.8
34.724,34.804
34.687,34.806
34.652,34.807
34.618,34.808
34.586,34.809
34.554,34.812
34.524,34.817
34.493,34.827
34.463,34.842
34.432,34.865
34.401,34.896
34.369,34.937
34.337,34.99
34.305,35.053
34.274,35.127
34.244,35.211
34.215,35.303
34.188,35.402
34.163,35.505
34.14,35.61
34.122,35.715
34.106,35.818
34.095,35.917
34.087,36.009
34.083,36.093
34.083,36.167
34.087,36.228
34.093,36.278
34.102,36.313
34.112,36.336
34.124,36.346
34.137,36.344
34.149,36.33
34.161,36.307
34.173,36.276
34.184,36.238
34.195,36.194
34.205,36.146
34.215,36.095
34.224,36.043
34.233,35.991
34.243,35.939
34.251,35.89
34.259,35.845
34.265,35.802
34.27,35.763
34.272,35.727
34.271,35.694
34.267,35.664
34.261,35.638
34.252,35.614
34.24,35.592
34.227,35.573
34.211,35.555
34.193,35.539
34.174,35.524
34.152,35.51
34.129,35.496
34.105,35.483
34.08,35.47
34.056,35.457
34.031,35.444
34.008,35.43
33.986,35.416
33.966,35.4
33.947,35.384
33.93,35.366
33.914,35.347
33.899,35.328
33.886,35.308
33.873,35.287
33.862,35.268
33.851,35.249
33.841,35.231
33.83,35.215
33.82,35.201
33.809,35.189
33.797,35.18
33.785,35.173
33.773,35.169
33.761,35.169
33.748,35.171
33.736,35.177
33.724,35.186
33.713,35.198
33.704,35.212
33.696,35.227
33.69,35.244
33.685,35.261
33.681,35.279
33.679,35.296
33.677,35.313
33.676,35.328
33.676,35.343
33.675,35.357
33.674,35.369
33.674,35.379
33.675,35.386
33.677,35.392
33.679,35.395
33.682,35.398
33.685,35.4
33.688,35.401
33.69,35.401
33.69,35.4
33.691,35.398
33.69,35.394
33.689,35.389
33.687,35.381
33.685,35.371
33.683,35.359
33.681,35.346
33.68,35.33
33.679,35.314
33.679,35.295
33.678,35.275
33.678,35.254
33.679,35.232
33.681,35.209
33.687,35.186
33.697,35.163
33.714,35.14
33.737,35.118
33.77,35.097
33.814,35.077
33.87,35.058
33.939,35.04
34.021,35.024
34.115,35.009
34.22,34.995
34.335,34.984
34.458,34.974
34.59,34.967
34.727,34.962
34.868,34.958
35.009,34.957
35.148,34.956
35.283,34.957
35.411,34.957
35.531,34.958
35.641,34.959
35.739,34.96
35.823,34.961
35.894,34.962
35.949,34.963
35.989,34.963
36.014,34.964
36.024,34.964
36.02,34.963
36.003,34.963
35.976,34.962
35.938,34.961
35.892,34.959
35.84,34.958
35.782,34.957
35.721,34.956
35.658,34.955
35.594,34.955
35.53,34.955
35.467,34.956
35.408,34.957
35.353,34.959
35.301,34.961
35.254,34.963
35.21,34.966
35.17,34.969
35.135,34.972
35.103,34.974
35.074,34.975
35.047,34.975
35.022,34.975
34.999,34.976
34.976,34.976
34.954,34.976
34.932,34.976
34.91,34.976
34.887,34.977
34.865,34.978
34.842,34.978
34.82,34.978
34.797,34.978
34.773,34.977
34.748,34.976
34.722,34.974
34.695,34.971
34.667,34.968
34.638,34.963
34.609,34.957
34.579,34.95
34.549,34.942
34.521,34.933
34.494,34.925
34.469,34.917
34.446,34.911
34.427,34.906
34.412,34.905
34.4,34.908
34.391,34.917
34.386,34.931
34.384,34.953
34.387,34.983
34.393,35.023
34.403,35.072
34.415,35.133
34.429,35.204
34.445,35.285
34.463,35.375
34.482,35.473
34.502,35.577
34.522,35.684
34.541,35.792
34.558,35.899
34.574,36.003
34.587,36.102
34.597,36.194
34.605,36.278
34.609,36.351
34.61,36.413
34.607,36.464
34.6,36.502
34.591,36.527
34.579,36.54
34.564,36.54
34.547,36.528
34.527,36.505
34.506,36.474
34.484,36.434
34.461,36.387
34.439,36.335
34.418,36.279
34.398,36.22
34.379,36.161
34.362,36.101
34.345,36.042
34.329,35.986
34.313,35.933
34.298,35.884
34.281,35.839
34.265,35.798
34.248,35.762
34.23,35.729
34.212,35.701
34.193,35.677
34.173,35.657
34.152,35.639
34.129,35.625
34.104,35.613
34.077,35.603
34.049,35.595
34.018,35.587
33.985,35.579
33.951,35.571
33.915,35.561
33.88,35.551
33.845,35.539
33.812,35.527
33.781,35.512
33.754,35.497
33.731,35.48
33.711,35.463
33.694,35.444
33.68,35.425
33.667,35.406
33.655,35.387
33.644,35.37
33.632,35.355
33.62,35.343
33.608,35.333
33.596,35.327
33.586,35.324
33.575,35.324
33.566,35.328
33.556,35.334
33.547,35.344
33.537,35.356
33.525,35.371
33.511,35.388
33.497,35.406
33.481,35.425
33.465,35.444
33.45,35.464
33.436,35.483
33.424,35.502
33.415,35.52
33.41,35.537
33.409,35.553
33.413,35.567
33.42,35.58
33.43,35.591
33.442,35.6
33.455,35.605
33.469,35.608
33.483,35.609
33.496,35.607
33.508,35.602
33.518,35.595
33.525,35.586
33.529,35.574
33.531,35.559
33.53,35.542
33.527,35.523
33.522,35.502
33.515,35.48
33.507,35.456
33.498,35.432
33.488,35.408
33.478,35.383
33.469,35.359
33.46,35.334
33.451,35.31
33.443,35.286
33.436,35.262
33.428,35.24
33.422,35.218
33.416,35.197
33.41,35.177
33.406,35.158
33.401,35.141
33.398,35.124
33.394,35.11
33.392,35.097
33.389,35.085
33.388,35.074
33.387,35.065
33.387,35.057
33.387,35.049
33.387,35.042
33.388,35.036
33.388,35.031
33.388,35.026
33.388,35.022
33.387,35.018
33.387,35.016
33.387,35.014
33.388,35.012
33.391,35.011
33.397,35.009
33.407,35.006
33.423,35.003
33.447,34.999
33.481,34.995
33.527,34.992
33.586,34.988
33.662,34.984
33.754,34.981
33.863,34.978
33.989,34.974
34.13,34.971
34.284,34.969
34.449,34.966
34.622,34.964
34.798,34.961
34.973,34.959
35.143,34.957
35.304,34.955
35.453,34.954
35.587,34.953
35.703,34.953
35.799,34.953
35.874,34.953
35.928,34.953
35.961,34.954
35.973,34.954
35.965,34.955
35.941,34.954
35.903,34.954
35.851,34.952
35.79,34.95
35.721,34.946
35.647,34.942
35.57,34.937
35.492,34.93
35.415,34.924
35.34,34.917
35.269,34.91
35.204,34.904
35.144,34.898
35.091,34.893
35.043,34.89
35.002,34.888
34.965,34.887
34.934,34.888
34.908,34.889
34.886,34.891
34.868,34.893
34.853,34.895
34.84,34.897
34.828,34.898
34.817,34.899
34.806,34.899
34.795,34.9
34.783,34.9
34.771,34.9
34.757,34.899
34.742,34.897
34.727,34.895
34.711,34.891
34.693,34.887
34.675,34.883
34.656,34.877
34.636,34.871
34.615,34.864
34.593,34.857
34.571,34.851
34.547,34.845
34.524,34.841
34.5,34.839
34.475,34.84
34.451,34.844
34.429,34.853
34.407,34.867
34.387,34.889
34.37,34.919
34.355,34.959
34.345,35.012
34.338,35.077
34.337,35.156
34.34,35.248
34.349,35.352
34.364,35.467
34.384,35.592
34.408,35.722
34.437,35.857
34.469,35.993
34.502,36.128
34.536,36.258
34.571,36.38
34.604,36.493
34.635,36.594
34.662,36.682
34.685,36.756
34.702,36.815
34.714,36.86
34.721,36.891
34.722,36.909
34.717,36.914
34.708,36.908
34.696,36.891
34.679,36.866
34.661,36.833
34.641,36.793
34.619,36.748
34.597,36.7
34.575,36.648
34.553,36.594
34.532,36.538
34.511,36.481
34.491,36.424
34.472,36.366
34.453,36.309
34.434,36.253
34.415,36.199
34.395,36.147
34.374,36.097
34.352,36.05
34.328,36.006
34.303,35.965
34.276,35.927
34.249,35.892
34.221,35.859
34.193,35.829
34.166,35.8
34.141,35.772
34.117,35.745
34.096,35.719
34.076,35.693
34.058,35.668
34.041,35.642
34.025,35.615
34.01,35.588
33.996,35.561
33.983,35.532
33.971,35.503
33.961,35.475
33.951,35.447
33.943,35.421
33.936,35.396
33.929,35.374
33.925,35.355
33.922,35.341
33.919,35.33
33.918,35.324
33.917,35.322
33.918,35.325
33.919,35.332
33.921,35.343
33.923,35.358
33.924,35.375
33.925,35.394
33.925,35.415
33.925,35.437
33.923,35.461
33.921,35.484
33.918,35.507
33.913,35.529
33.907,35.549
33.9,35.568
33.891,35.584
33.882,35.598
33.873,35.608
33.863,35.616
33.854,35.621
33.846,35.624
33.837,35.624
33.829,35.621
33.822,35.616
33.815,35.609
33.808,35.6
33.801,35.588
33.794,35.574
33.787,35.559
33.78,35.541
33.773,35.522
33.767,35.502
33.76,35.48
33.753,35.458
33.746,35.434
33.739,35.411
33.733,35.388
33.726,35.365
33.72,35.344
33.714,35.324
33.709,35.305
33.704,35.288
33.7,35.273
33.696,35.259
33.694,35.247
33.692,35.236
33.692,35.226
33.694,35.217
33.695,35.209
33.698,35.201
33.7,35.194
33.702,35.187
33.704,35.18
33.707,35.174
33.711,35.167
33.718,35.161
33.731,35.155
33.752,35.149
33.782,35.144
33.824,35.139
33.879,35.135
33.949,35.131
34.035,35.127
34.135,35.122
34.25,35.117
34.377,35.113
34.516,35.108
34.665,35.104
34.82,35.1
34.978,35.097
35.137,35.095
35.292,35.093
35.442,35.092
35.582,35.092
35.711,35.093
35.826,35.094
35.925,35.095
36.006,35.098
36.07,35.101
36.116,35.105
36.143,35.11
36.153,35.117
36.147,35.124
36.126,35.132
36.092,35.141
36.047,35.148
35.993,35.156
35.931,35.162
35.865,35.167
35.795,35.171
35.725,35.174
35.655,35.176
35.587,35.176
35.522,35.176
35.461,35.173
35.403,35.17
35.35,35.165
35.3,35.159
35.255,35.153
35.213,35.145
35.175,35.138
35.139,35.132
35.105,35.125
35.072,35.119
35.04,35.112
35.008,35.106
34.976,35.098
34.944,35.09
34.91,35.083
34.876,35.075
34.841,35.066
34.806,35.058
34.771,35.049
34.738,35.04
34.705,35.031
34.674,35.021
34.644,35.01
34.615,34.999
34.588,34.987
34.562,34.976
34.538,34.965
34.517,34.954
34.499,34.946
34.483,34.938
34.47,34.932
34.459,34.928
34.452,34.926
34.446,34.925
34.443,34.926
34.441,34.929
34.441,34.933
34.443,34.939
34.447,34.946
34.454,34.956
34.464,34.968
34.478,34.983
34.495,35.003
34.514,35.028
34.537,35.06
34.562,35.101
34.589,35.151
34.618,35.211
34.648,35.28
34.678,35.359
34.707,35.445
34.733,35.538
34.755,35.634
34.775,35.733
34.79,35.832
34.8,35.929
34.807,36.021
34.809,36.107
34.807,36.184
34.803,36.251
34.798,36.307
34.791,36.352
34.785,36.385
34.779,36.406
34.774,36.416
34.77,36.415
34.765,36.405
34.761,36.385
34.756,36.358
34.751,36.322
34.744,36.281
34.736,36.234
34.726,36.184
34.714,36.13
34.7,36.075
34.684,36.02
34.665,35.965
34.645,35.912
34.622,35.86
34.599,35.811
34.574,35.763
34.55,35.719
34.525,35.679
34.502,35.642
34.479,35.611
34.458,35.584
34.437,35.562
34.417,35.545
34.397,35.532
34.378,35.522
34.359,35.516
34.34,35.512
34.32,35.511
34.301,35.51
34.282,35.511
34.264,35.512
34.247,35.513
34.23,35.513
34.215,35.511
34.201,35.507
34.187,35.501
34.175,35.492
34.164,35.48
34.154,35.466
34.146,35.45
34.138,35.432
34.132,35.413
34.128,35.394
34.124,35.375
34.122,35.357
34.122,35.34
34.123,35.324
34.126,35.312
34.13,35.303
34.135,35.298
34.141,35.298
34.148,35.302
34.156,35.309
34.165,35.319
34.174,35.332
34.183,35.346
34.191,35.361
34.199,35.377
34.206,35.393
34.211,35.409
34.216,35.425
34.219,35.439
34.221,35.452
34.222,35.463
34.221,35.472
34.22,35.479
34.218,35.482
34.215,35.484
34.212,35.483
34.208,35.48
34.204,35.475
34.199,35.467
34.195,35.457
34.192,35.445
34.19,35.431
34.189,35.415
34.19,35.398
34.194,35.379
34.199,35.359
34.207,35.338
34.217,35.317
34.229,35.294
34.24,35.271
34.252,35.248
34.263,35.225
34.274,35.202
34.283,35.179
34.292,35.156
34.301,35.133
34.31,35.113
34.32,35.093
34.334,35.076
34.352,35.06
34.377,35.046
34.412,35.032
34.457,35.02
34.514,35.008
34.585,34.998
34.67,34.988
34.767,34.978
34.878,34.967
35,34.956
35.132,34.945
35.272,34.934
35.417,34.921
35.564,34.909
35.71,34.897
35.854,34.885
35.992,34.874
36.121,34.865
36.239,34.855
36.345,34.847
36.437,34.838
36.514,34.83
36.576,34.822
36.623,34.814
36.654,34.807
36.67,34.8
36.672,34.795
36.66,34.792
36.634,34.792
36.596,34.794
36.546,34.799
36.486,34.805
36.417,34.813
36.34,34.822
36.26,34.832
36.176,34.843
36.091,34.854
36.008,34.866
35.927,34.877
35.848,34.889
35.774,34.899
35.703,34.908
35.637,34.914
35.574,34.919
35.516,34.92
35.46,34.92
35.408,34.918
35.36,34.915
35.315,34.91
35.274,34.905
35.234,34.899
35.197,34.892
35.162,34.885
35.127,34.877
35.094,34.868
35.06,34.858
35.026,34.849
34.992,34.841
34.957,34.835
34.922,34.829
34.885,34.826
34.848,34.824
34.81,34.824
34.77,34.825
34.73,34.829
34.691,34.833
34.652,34.838
34.616,34.843
34.583,34.849
34.554,34.855
34.53,34.861
34.513,34.868
34.501,34.875
34.495,34.883
34.496,34.893
34.502,34.905
34.515,34.921
34.532,34.943
34.552,34.972
34.576,35.01
34.603,35.058
34.633,35.117
34.665,35.187
34.697,35.269
34.731,35.36
34.765,35.461
34.799,35.568
34.833,35.679
34.866,35.791
34.897,35.901
34.926,36.008
34.951,36.108
34.973,36.2
34.991,36.282
35.005,36.352
35.016,36.41
35.022,36.455
35.026,36.486
35.026,36.505
35.024,36.511
35.02,36.507
35.013,36.492
35.005,36.467
34.995,36.435
34.982,36.395
34.968,36.348
34.951,36.296
34.931,36.24
34.91,36.179
34.886,36.117
34.861,36.053
34.836,35.99
34.81,35.927
34.784,35.867
34.758,35.809
34.733,35.755
34.709,35.704
34.686,35.657
34.664,35.614
34.643,35.576
34.622,35.541
34.601,35.51
34.581,35.482
34.562,35.457
34.543,35.435
34.524,35.414
34.506,35.394
34.488,35.375
34.47,35.357
34.453,35.338
34.436,35.32
34.418,35.301
34.401,35.28
34.384,35.259
34.367,35.236
34.35,35.212
34.335,35.188
34.321,35.163
34.31,35.139
34.3,35.117
34.292,35.096
34.286,35.079
34.281,35.065
34.278,35.053
34.277,35.046
34.277,35.042
34.277,35.041
34.278,35.046
34.278,35.055
34.279,35.068
34.28,35.085
34.282,35.105
34.285,35.128
34.289,35.152
34.294,35.178
34.298,35.204
34.302,35.231
34.305,35.257
34.308,35.284
34.31,35.311
34.311,35.337
34.312,35.363
34.313,35.388
34.313,35.411
34.312,35.432
34.311,35.449
34.31,35.463
34.308,35.473
34.305,35.478
34.303,35.478
34.301,35.474
34.3,35.465
34.3,35.452
34.301,35.435
34.304,35.415
34.308,35.395
34.313,35.374
34.319,35.354
34.325,35.334
34.332,35.315
34.339,35.296
34.345,35.278
34.352,35.26
34.358,35.242
34.364,35.223
34.373,35.204
34.384,35.183
34.399,35.16
34.42,35.136
34.447,35.112
34.484,35.087
34.53,35.064
34.589,35.043
34.66,35.024
34.743,35.009
34.839,34.996
34.946,34.986
35.063,34.978
35.19,34.973
35.324,34.969
35.462,34.967
35.602,34.965
35.74,34.964
35.874,34.961
36.001,34.957
36.119,34.951
36.226,34.942
36.32,34.93
36.4,34.916
36.465,34.898
36.515,34.878
36.549,34.855
36.568,34.831
36.573,34.805
36.563,34.777
36.542,34.749
36.51,34.719
36.47,34.69
36.423,34.661
36.371,34.634
36.314,34.608
36.254,34.585
36.193,34.565
36.13,34.548
36.068,34.535
36.007,34.525
35.948,34.518
35.891,34.514
35.837,34.512
35.785,34.512
35.736,34.514
35.69,34.518
35.647,34.524
35.608,34.531
35.572,34.54
35.539,34.55
35.509,34.561
35.482,34.574
35.457,34.588
35.435,34.603
35.414,34.619
35.393,34.637
35.373,34.655
35.352,34.675
35.331,34.696
35.308,34.717
35.285,34.74
35.259,34.762
35.232,34.784
35.204,34.806
35.173,34.826
35.143,34.845
35.112,34.863
35.082,34.881
35.053,34.9
35.027,34.919
35.002,34.939
34.981,34.961
34.963,34.985
34.948,35.01
34.936,35.038
34.927,35.068
34.922,35.103
34.919,35.141
34.919,35.185
34.923,35.235
34.929,35.291
34.938,35.353
34.95,35.421
34.964,35.494
34.98,35.571
34.999,35.653
35.019,35.736
35.04,35.82
35.06,35.902
35.08,35.982
35.099,36.057
35.117,36.126
35.132,36.187
35.146,36.241
35.158,36.285
35.168,36.32
35.175,36.346
35.18,36.363
35.182,36.37
35.182,36.369
35.18,36.359
35.174,36.342
35.166,36.317
35.154,36.285
35.14,36.246
35.122,36.202
35.102,36.152
35.079,36.099
35.054,36.043
35.026,35.985
34.998,35.926
34.969,35.867
34.939,35.808
34.91,35.751
34.881,35.696
34.852,35.644
34.825,35.597
34.797,35.553
34.771,35.514
34.746,35.478
34.723,35.446
34.701,35.418
34.681,35.392
34.662,35.368
34.644,35.347
34.627,35.328
34.611,35.311
34.597,35.294
34.583,35.278
34.57,35.263
34.558,35.247
34.545,35.231
34.532,35.216
34.519,35.199
34.506,35.183
34.491,35.165
34.476,35.148
34.461,35.13
34.446,35.112
34.432,35.095
34.419,35.079
34.408,35.065
34.397,35.053
34.388,35.044
34.379,35.039
34.371,35.038
34.364,35.041
34.356,35.049
34.349,35.061
34.342,35.077
34.335,35.097
34.328,35.119
34.321,35.144
34.314,35.17
34.307,35.197
34.298,35.224
34.289,35.251
34.277,35.278
34.264,35.303
34.249,35.327
34.233,35.349
34.214,35.37
34.194,35.389
34.171,35.406
34.144,35.42
34.114,35.433
34.08,35.443
34.042,35.45
34.001,35.454
33.956,35.456
33.909,35.454
33.859,35.45
33.806,35.442
33.752,35.432
33.697,35.42
33.64,35.407
33.583,35.393
33.525,35.377
33.466,35.361
33.408,35.343
33.35,35.325
33.293,35.307
33.238,35.289
33.184,35.271
33.133,35.252
33.086,35.233
33.045,35.214
33.009,35.195
32.981,35.175
32.961,35.156
32.952,35.136
32.953,35.117
32.966,35.098
32.993,35.08
33.033,35.063
33.09,35.048
33.163,35.034
33.251,35.021
33.355,35.011
33.475,35.002
33.607,34.995
33.752,34.988
33.907,34.983
34.068,34.978
34.234,34.974
34.402,34.97
34.569,34.967
34.733,34.965
34.889,34.963
35.037,34.962
35.174,34.961
35.299,34.96
35.412,34.959
35.51,34.958
35.596,34.957
35.669,34.956
35.731,34.954
35.782,34.953
35.823,34.951
35.857,34.948
35.882,34.946
35.901,34.944
35.915,34.942
35.925,34.941
35.932,34.94
35.937,34.939
35.939,34.938
35.941,34.937
35.942,34.937
35.944,34.937
35.944,34.938
35.945,34.938
35.944,34.939
35.943,34.94
35.94,34.941
35.938,34.941
35.935,34.942
35.932,34.942
35.928,34.941
35.924,34.939
35.918,34.935
35.909,34.93
35.897,34.924
35.879,34.917
35.856,34.91
35.825,34.902
35.788,34.895
35.742,34.889
35.69,34.884
35.631,34.88
35.567,34.879
35.497,34.88
35.422,34.886
35.344,34.896
35.263,34.912
35.181,34.936
35.099,34.968
35.019,35.009
34.943,35.06
34.872,35.122
34.806,35.192
34.748,35.272
34.698,35.359
34.656,35.452
34.622,35.548
34.598,35.646
34.581,35.743
34.573,35.838
34.572,35.928
34.578,36.012
34.591,36.088
34.611,36.154
34.637,36.21
34.668,36.255
34.703,36.288
34.74,36.309
34.779,36.319
34.819,36.318
34.86,36.307
34.901,36.288
34.941,36.26
34.979,36.225
35.015,36.185
35.05,36.14
35.082,36.093
35.113,36.043
35.142,35.992
35.169,35.941
35.196,35.891
35.22,35.842
35.243,35.796
35.263,35.753
35.282,35.713
35.298,35.677
35.312,35.644
35.323,35.614
35.332,35.588
35.338,35.564
35.34,35.543
35.341,35.524
35.338,35.507
35.334,35.491
35.326,35.477
35.317,35.463
35.305,35.451
35.291,35.439
35.275,35.426
35.257,35.414
35.237,35.4
35.216,35.385
35.193,35.369
35.169,35.352
35.143,35.334
35.116,35.315
35.088,35.297
35.059,35.28
35.031,35.264
35.002,35.251
34.975,35.239
34.948,35.229
34.923,35.222
34.9,35.217
34.877,35.214
34.856,35.214
34.835,35.217
34.816,35.223
34.797,35.233
34.779,35.245
34.762,35.26
34.746,35.277
34.73,35.295
34.716,35.315
34.702,35.334
34.689,35.354
34.677,35.373
34.665,35.391
34.654,35.408
34.643,35.423
34.633,35.436
34.622,35.447
34.611,35.456
34.599,35.464
34.588,35.47
34.578,35.475
34.568,35.478
34.558,35.478
34.549,35.476
34.54,35.472
34.533,35.466
34.527,35.457
34.522,35.446
34.519,35.432
34.519,35.416
34.521,35.398
34.526,35.379
34.535,35.36
34.549,35.34
34.568,35.32
34.593,35.301
34.626,35.282
34.667,35.265
34.719,35.248
34.781,35.232
34.854,35.216
34.939,35.201
35.036,35.187
35.143,35.172
35.259,35.158
35.382,35.144
35.511,35.13
35.643,35.116
35.775,35.102
35.906,35.089
36.031,35.076
36.15,35.065
36.26,35.054
36.36,35.043
36.447,35.034
36.523,35.025
36.585,35.016
36.633,35.007
36.669,34.998
36.692,34.99
36.702,34.982
36.7,34.975
36.688,34.968
36.666,34.961
36.634,34.956
36.595,34.951
36.55,34.946
36.5,34.943
36.446,34.939
36.39,34.937
36.332,34.935
36.274,34.933
36.217,34.933
36.16,34.933
36.105,34.934
36.052,34.936
36,34.938
35.95,34.941
35.902,34.945
35.857,34.948
35.815,34.952
35.775,34.954
35.738,34.956
35.703,34.957
35.67,34.956
35.638,34.955
35.607,34.954
35.577,34.951
35.546,34.947
35.514,34.944
35.481,34.94
35.446,34.937
35.41,34.935
35.372,34.935
35.333,34.936
35.292,34.938
35.252,34.942
35.211,34.947
35.173,34.954
35.137,34.961
35.106,34.969
35.078,34.978
35.057,34.989
35.041,35.001
35.031,35.016
35.027,35.035
35.03,35.058
35.038,35.086
35.052,35.121
35.07,35.162
35.092,35.211
35.119,35.267
35.148,35.331
35.179,35.403
35.212,35.481
35.245,35.565
35.278,35.654
35.31,35.745
35.342,35.836
35.372,35.927
35.402,36.015
35.429,36.098
35.455,36.175
35.48,36.245
35.502,36.307
35.521,36.36
35.538,36.404
35.551,36.438
35.56,36.461
35.566,36.475
35.567,36.479
35.565,36.475
35.558,36.462
35.547,36.442
35.533,36.415
35.517,36.382
35.498,36.344
35.477,36.304
35.455,36.26
35.432,36.215
35.409,36.169
35.386,36.123
35.363,36.078
35.341,36.033
35.319,35.99
35.297,35.948
35.276,35.908
35.255,35.871
35.233,35.836
35.211,35.804
35.188,35.775
35.164,35.749
35.139,35.727
35.113,35.709
35.086,35.693
35.058,35.68
35.03,35.669
35.002,35.66
34.974,35.652
34.947,35.643
34.92,35.635
34.895,35.626
34.871,35.615
34.849,35.604
34.829,35.591
34.812,35.576
34.797,35.56
34.784,35.543
34.773,35.525
34.763,35.507
34.755,35.489
34.748,35.471
34.743,35.453
34.739,35.437
34.736,35.423
34.735,35.411
34.735,35.402
34.737,35.395
34.739,35.391
34.741,35.391
34.744,35.393
34.746,35.398
34.747,35.404
34.748,35.413
34.748,35.424
34.747,35.436
34.745,35.451
34.742,35.466
34.737,35.483
34.731,35.5
34.725,35.517
34.718,35.533
34.71,35.548
34.703,35.561
34.696,35.573
34.689,35.582
34.683,35.59
34.678,35.596
34.673,35.6
34.669,35.603
34.666,35.603
34.664,35.601
34.663,35.596
34.664,35.59
34.667,35.582
34.674,35.572
34.683,35.561
34.697,35.546
34.716,35.53
34.743,35.512
34.778,35.493
34.824,35.472
34.88,35.451
34.949,35.429
35.03,35.407
35.123,35.385
35.229,35.364
35.344,35.343
35.469,35.322
35.6,35.302
35.734,35.282
35.87,35.263
36.004,35.245
36.133,35.228
36.256,35.212
36.371,35.197
36.476,35.184
36.57,35.173
36.652,35.163
36.721,35.154
36.776,35.146
36.816,35.138
36.842,35.132
36.854,35.127
36.851,35.123
36.836,35.12
36.809,35.118
36.77,35.118
36.723,35.118
36.669,35.12
36.611,35.122
36.549,35.124
36.485,35.126
36.42,35.128
36.356,35.13
36.293,35.131
36.232,35.132
36.173,35.132
36.117,35.132
36.064,35.132
36.014,35.131
35.968,35.13
35.924,35.128
35.884,35.126
35.846,35.124
35.812,35.122
35.779,35.12
35.749,35.118
35.72,35.117
35.693,35.114
35.666,35.111
35.641,35.108
35.615,35.103
35.589,35.098
35.561,35.092
35.533,35.086
35.504,35.079
35.475,35.073
35.445,35.067
35.415,35.061
35.386,35.056
35.357,35.051
35.331,35.047
35.306,35.043
35.283,35.039
35.265,35.035
35.249,35.032
35.238,35.029
35.231,35.026
35.228,35.024
35.229,35.022
35.233,35.021
35.241,35.021
35.252,35.022
35.268,35.024
35.287,35.028
35.309,35.035
35.335,35.046
35.362,35.061
35.392,35.082
35.422,35.109
35.452,35.144
35.482,35.187
35.509,35.238
35.535,35.298
35.558,35.367
35.578,35.444
35.596,35.528
35.611,35.618
35.622,35.713
35.631,35.81
35.636,35.908
35.639,36.005
35.639,36.099
35.637,36.188
35.632,36.27
35.625,36.344
35.616,36.408
35.605,36.462
35.592,36.504
35.578,36.536
35.561,36.556
35.543,36.565
35.524,36.565
35.503,36.554
35.481,36.535
35.457,36.508
35.433,36.474
35.407,36.434
35.381,36.39
35.355,36.344
35.327,36.296
35.3,36.247
35.272,36.199
35.244,36.152
35.217,36.108
35.19,36.066
35.163,36.028
35.138,35.994
35.114,35.964
35.091,35.939
35.071,35.918
35.051,35.901
35.034,35.888
35.019,35.877
35.006,35.869
34.995,35.862
34.985,35.855
34.975,35.849
34.966,35.843
34.958,35.836
34.949,35.828
34.941,35.819
34.933,35.809
34.926,35.798
34.92,35.786
34.913,35.772
34.907,35.756
34.901,35.739
34.896,35.72
34.891,35.699
34.886,35.678
34.882,35.656
34.878,35.634
34.874,35.612
34.871,35.593
34.867,35.575
34.864,35.559
34.861,35.546
34.858,35.536
34.854,35.528
34.851,35.524
34.847,35.524
34.844,35.527
34.84,35.534
34.836,35.545
34.831,35.558
34.827,35.574
34.823,35.591
34.818,35.609
34.813,35.626
34.807,35.643
34.801,35.659
34.793,35.674
34.785,35.688
34.777,35.7
34.768,35.711
34.76,35.719
34.753,35.725
34.747,35.728
34.744,35.728
34.744,35.725
34.75,35.72
34.761,35.712
34.781,35.702
34.81,35.69
34.849,35.676
34.901,35.661
34.965,35.644
35.043,35.627
35.134,35.609
35.237,35.59
35.351,35.572
35.475,35.554
35.606,35.536
35.743,35.52
35.882,35.504
36.021,35.488
36.157,35.473
36.287,35.459
36.409,35.444
36.522,35.431
36.623,35.417
36.71,35.405
36.784,35.393
36.843,35.381
36.888,35.37
36.92,35.359
36.938,35.349
36.944,35.34
36.939,35.331
36.925,35.322
36.901,35.313
36.87,35.305
36.833,35.298
36.791,35.292
36.745,35.286
36.696,35.282
36.644,35.279
36.592,35.275
36.541,35.272
36.49,35.269
36.442,35.265
36.397,35.261
36.355,35.257
36.315,35.252
36.279,35.247
36.246,35.241
36.215,35.236
36.187,35.229
36.16,35.222
36.135,35.213
36.112,35.204
36.089,35.193
36.067,35.182
36.045,35.169
36.023,35.157
36.001,35.144
35.979,35.132
35.955,35.12
35.931,35.109
35.907,35.1
35.882,35.092
35.856,35.086
35.83,35.082
35.803,35.08
35.775,35.08
35.747,35.081
35.719,35.083
35.693,35.086
35.668,35.09
35.645,35.094
35.626,35.099
35.61,35.104
35.598,35.109
35.59,35.114
35.586,35.118
35.585,35.121
35.588,35.124
35.593,35.127
35.601,35.129
35.61,35.13
35.621,35.131
35.633,35.131
35.646,35.131
35.661,35.13
35.676,35.129
35.691,35.127
35.707,35.124
35.723,35.121
35.74,35.116
35.756,35.112
35.772,35.107
35.786,35.103
35.799,35.1
35.81,35.099
35.82,35.099
35.828,35.103
35.834,35.11
35.837,35.123
35.838,35.142
35.836,35.169
35.831,35.204
35.824,35.248
35.814,35.302
35.801,35.365
35.786,35.438
35.768,35.52
35.748,35.609
35.725,35.704
35.701,35.805
35.675,35.908
35.647,36.012
35.619,36.115
35.59,36.214
35.562,36.306
35.534,36.391
35.506,36.466
35.479,36.53
35.453,36.582
35.428,36.621
35.404,36.647
35.38,36.661
35.358,36.664
35.336,36.656
35.314,36.638
35.293,36.612
35.273,36.578
35.253,36.537
35.234,36.493
35.217,36.444
35.201,36.394
35.187,36.343
35.175,36.293
35.165,36.244
35.156,36.197
35.148,36.154
35.142,36.114
35.137,36.079
35.132,36.047
35.127,36.019
35.123,35.995
35.119,35.974
35.114,35.957
35.109,35.943
35.104,35.932
35.098,35.922
35.091,35.913
35.084,35.905
35.076,35.896
35.068,35.886
35.06,35.875
35.051,35.863
35.042,35.849
35.033,35.833
35.024,35.815
35.016,35.794
35.008,35.77
35.001,35.745
34.995,35.718
34.99,35.692
34.985,35.667
34.981,35.643
34.979,35.622
34.978,35.604
34.978,35.59
34.979,35.58
34.981,35.575
34.983,35.573
34.985,35.575
34.987,35.581
34.99,35.59
34.992,35.601
34.995,35.614
34.998,35.629
35.001,35.646
35.006,35.663
35.012,35.681
35.02,35.699
35.033,35.717
35.05,35.733
35.075,35.748
35.108,35.761
35.151,35.771
35.206,35.78
35.272,35.788
35.352,35.794
35.443,35.799
35.546,35.802
35.659,35.804
35.78,35.805
35.906,35.804
36.035,35.803
36.164,35.799
36.29,35.794
36.411,35.787
36.525,35.778
36.629,35.766
36.722,35.753
36.801,35.739
36.867,35.724
36.919,35.708
36.956,35.691
36.978,35.674
36.988,35.656
36.985,35.638
36.97,35.62
36.945,35.603
36.911,35.588
36.869,35.574
36.821,35.561
36.767,35.549
36.71,35.539
36.649,35.53
36.587,35.521
36.524,35.512
36.461,35.503
36.4,35.494
36.341,35.485
36.285,35.476
36.231,35.466
36.182,35.456
36.136,35.444
36.094,35.432
36.056,35.42
36.021,35.408
35.989,35.396
35.96,35.384
35.933,35.373
35.908,35.361
35.885,35.349
35.864,35.337
35.845,35.326
35.827,35.315
35.81,35.306
35.794,35.298
35.777,35.292
35.761,35.288
35.743,35.284
35.725,35.282
35.705,35.28
35.684,35.279
35.663,35.277
35.641,35.276
35.619,35.274
35.598,35.272
35.578,35.269
35.559,35.265
35.542,35.262
35.528,35.258
35.517,35.253
35.509,35.249
35.505,35.245
35.504,35.241
35.505,35.237
35.51,35.234
35.518,35.231
35.529,35.229
35.542,35.228
35.557,35.228
35.573,35.229
35.591,35.231
35.61,35.233
35.629,35.235
35.648,35.238
35.666,35.242
35.683,35.246
35.698,35.25
35.711,35.254
35.722,35.258
35.73,35.261
35.735,35.264
35.737,35.265
35.736,35.266
35.733,35.265
35.728,35.264
35.721,35.262
35.711,35.259
35.7,35.257
35.686,35.254
35.671,35.252
35.655,35.249
35.637,35.247
35.618,35.245
35.598,35.244
35.576,35.242
35.553,35.241
35.529,35.239
35.503,35.236
35.478,35.232
35.453,35.226
35.429,35.219
35.406,35.211
35.384,35.201
35.363,35.189
35.344,35.176
35.327,35.163
35.311,35.15
35.297,35.137
35.284,35.125
35.272,35.115
35.26,35.106
35.249,35.1
35.239,35.096
35.23,35.094
35.22,35.095
35.211,35.099
35.201,35.107
35.192,35.118
35.182,35.135
35.173,35.158
35.163,35.187
35.152,35.224
35.141,35.27
35.129,35.324
35.116,35.387
35.104,35.459
35.092,35.538
35.082,35.624
35.072,35.715
35.063,35.81
35.055,35.906
35.049,36.002
35.043,36.096
35.038,36.185
35.034,36.268
35.03,36.344
35.027,36.412
35.024,36.47
35.022,36.518
35.021,36.555
35.02,36.582
35.019,36.597
35.018,36.602
35.016,36.598
35.013,36.584
35.01,36.562
35.005,36.534
35,36.5
34.993,36.462
34.986,36.421
34.978,36.378
34.969,36.335
34.961,36.292
34.952,36.25
34.944,36.21
34.935,36.172
34.925,36.136
34.915,36.101
34.905,36.07
34.894,36.04
34.884,36.014
34.875,35.99
34.867,35.97
34.862,35.953
34.86,35.939
34.863,35.928
34.874,35.918
34.893,35.911
34.923,35.904
34.963,35.897
35.015,35.891
35.08,35.884
35.157,35.875
35.246,35.865
35.346,35.853
35.455,35.839
35.573,35.823
35.695,35.805
35.822,35.786
35.951,35.765
36.079,35.744
36.205,35.723
36.326,35.703
36.439,35.685
36.542,35.668
36.633,35.654
36.71,35.643
36.773,35.635
36.822,35.631
36.855,35.63
36.874,35.633
36.879,35.639
36.871,35.648
36.852,35.659
36.823,35.672
36.784,35.687
36.738,35.701
36.687,35.716
36.631,35.73
36.574,35.743
36.514,35.755
36.454,35.766
36.395,35.775
36.336,35.782
36.279,35.788
36.225,35.792
36.174,35.795
36.126,35.797
36.082,35.798
36.042,35.797
36.005,35.796
35.973,35.794
35.944,35.79
35.919,35.786
35.897,35.78
35.878,35.773
35.861,35.765
35.845,35.755
35.831,35.744
35.818,35.731
35.804,35.718
35.79,35.704
35.773,35.689
35.755,35.673
35.734,35.657
35.71,35.64
35.684,35.622
35.656,35.603
35.627,35.583
35.598,35.563
35.569,35.543
35.54,35.523
35.515,35.503
35.492,35.484
35.473,35.467
35.458,35.451
35.448,35.436
35.443,35.423
35.442,35.412
35.446,35.402
35.454,35.393
35.465,35.386
35.48,35.38
35.498,35.375
35.52,35.371
35.543,35.367
35.568,35.365
35.594,35.363
35.62,35.361
35.647,35.36
35.673,35.359
35.698,35.358
35.722,35.356
35.744,35.354
35.762,35.351
35.776,35.347
35.787,35.343
35.793,35.339
35.795,35.335
35.792,35.331
35.786,35.328
35.776,35.324
35.762,35.321
35.746,35.317
35.729,35.313
35.709,35.31
35.688,35.306
35.666,35.302
35.643,35.298
35.62,35.294
35.597,35.291
35.574,35.287
35.551,35.285
35.528,35.282
35.505,35.28
35.483,35.279
35.46,35.277
35.436,35.275
35.413,35.273
35.389,35.27
35.365,35.266
35.343,35.262
35.321,35.257
35.302,35.252
35.283,35.247
35.267,35.242
35.251,35.237
35.237,35.233
35.223,35.229
35.21,35.225
35.197,35.221
35.185,35.218
35.172,35.214
35.159,35.211
35.147,35.209
35.134,35.207
35.121,35.205
35.109,35.205
35.097,35.206
35.087,35.207
35.079,35.208
35.071,35.209
35.065,35.21
35.061,35.211
35.057,35.211
35.053,35.209
35.051,35.206
35.048,35.202
35.046,35.197
35.044,35.19
35.041,35.183
35.037,35.175
35.032,35.167
35.026,35.158
35.018,35.149
35.01,35.14
35.001,35.133
34.992,35.125
34.982,35.119
34.973,35.112
34.964,35.106
34.955,35.1
34.947,35.093
34.941,35.087
34.935,35.082
34.93,35.077
34.926,35.071
34.923,35.067
34.921,35.062
34.92,35.058
34.92,35.054
34.919,35.051
34.92,35.049
34.921,35.048
34.922,35.048
34.923,35.049
34.926,35.051
34.929,35.055
34.934,35.06
34.942,35.067
34.954,35.077
34.971,35.092
34.995,35.112
35.027,35.139
35.069,35.174
35.121,35.217
35.183,35.268
35.257,35.33
35.342,35.4
35.437,35.479
35.542,35.565
35.654,35.658
35.772,35.756
35.893,35.857
36.014,35.96
36.132,36.062
36.246,36.16
36.353,36.254
36.452,36.341
36.54,36.419
36.617,36.488
36.681,36.546
36.733,36.593
36.771,36.627
36.795,36.649
36.806,36.657
36.805,36.654
36.792,36.639
36.768,36.615
36.734,36.582
36.693,36.542
36.645,36.496
36.592,36.446
36.536,36.393
36.477,36.339
36.417,36.284
36.358,36.231
36.3,36.179
36.244,36.13
36.19,36.085
36.14,36.043
36.092,36.006
36.049,35.973
36.01,35.945
35.974,35.921
35.942,35.9
35.914,35.883
35.888,35.869
35.866,35.858
35.846,35.849
35.827,35.843
35.81,35.837
35.793,35.832
35.775,35.827
35.757,35.821
35.738,35.814
35.717,35.805
35.696,35.795
35.674,35.784
35.652,35.771
35.63,35.757
35.608,35.742
35.587,35.725
35.567,35.706
35.548,35.687
35.532,35.666
35.519,35.645
35.508,35.624
35.501,35.604
35.496,35.585
35.494,35.568
35.494,35.553
35.497,35.541
35.502,35.532
35.51,35.526
35.519,35.524
35.532,35.526
35.546,35.53
35.562,35.537
35.58,35.545
35.599,35.555
35.619,35.566
35.639,35.578
35.659,35.59
35.678,35.604
35.696,35.618
35.713,35.633
35.729,35.648
35.742,35.663
35.754,35.676
35.763,35.687
35.769,35.698
35.772,35.706
35.773,35.713
35.77,35.718
35.764,35.721
35.755,35.723
35.744,35.723
35.73,35.721
35.714,35.717
35.695,35.711
35.673,35.703
35.648,35.694
35.621,35.684
35.593,35.672
35.563,35.66
35.532,35.645
35.501,35.63
35.47,35.614
35.44,35.595
35.412,35.576
35.385,35.556
35.359,35.536
35.335,35.515
35.312,35.495
35.291,35.477
35.272,35.461
35.253,35.446
35.237,35.433
35.222,35.422
35.208,35.414
35.196,35.407
35.185,35.401
35.174,35.397
35.165,35.393
35.156,35.39
35.147,35.388
35.138,35.385
35.128,35.382
35.119,35.379
35.109,35.376
35.099,35.372
35.089,35.367
35.078,35.363
35.067,35.359
35.058,35.356
35.048,35.353
35.04,35.35
35.033,35.347
35.028,35.343
35.022,35.34
35.018,35.336
35.013,35.331
35.008,35.325
35.004,35.319
35,35.313
34.996,35.306
34.993,35.299
34.99,35.291
34.987,35.282
34.984,35.271
34.981,35.26
34.978,35.247
34.975,35.234
34.971,35.22
34.968,35.207
34.964,35.194
34.961,35.181
34.959,35.169
34.957,35.157
34.955,35.145
34.954,35.134
34.953,35.124
34.952,35.116
34.951,35.109
34.95,35.103
34.949,35.099
34.948,35.097
34.948,35.097
34.949,35.097
34.953,35.099
34.959,35.1
34.971,35.102
34.989,35.103
35.014,35.104
35.048,35.104
35.092,35.104
35.147,35.102
35.213,35.1
35.29,35.097
35.379,35.093
35.477,35.089
35.583,35.085
35.697,35.08
35.814,35.076
35.934,35.073
36.053,35.07
36.168,35.068
36.278,35.065
36.38,35.064
36.473,35.062
36.554,35.061
36.623,35.061
36.678,35.061
36.719,35.063
36.746,35.064
36.76,35.065
36.759,35.066
36.747,35.067
36.723,35.066
36.689,35.066
36.647,35.065
36.597,35.064
36.541,35.062
36.481,35.059
36.417,35.056
36.352,35.051
36.285,35.046
36.218,35.04
36.154,35.034
36.092,35.029
36.033,35.023
35.979,35.018
35.93,35.012
35.886,35.005
35.848,34.999
35.814,34.993
35.786,34.987
35.761,34.982
35.741,34.979
35.723,34.977
35.707,34.977
35.691,34.979
35.676,34.984
35.66,34.991
35.642,35.001
35.622,35.014
35.6,35.032
35.575,35.054
35.547,35.083
35.518,35.118
35.488,35.162
35.457,35.214
35.426,35.276
35.396,35.346
35.367,35.425
35.341,35.511
35.318,35.603
35.299,35.698
35.285,35.794
35.275,35.891
35.27,35.984
35.269,36.073
35.273,36.156
35.281,36.232
35.293,36.298
35.309,36.355
35.328,36.401
35.35,36.436
35.374,36.46
35.401,36.473
35.429,36.476
35.459,36.469
35.491,36.454
35.523,36.432
35.555,36.403
35.586,36.37
35.615,36.333
35.642,36.295
35.666,36.256
35.686,36.216
35.703,36.178
35.715,36.14
35.723,36.104
35.727,36.071
35.728,36.039
35.725,36.01
35.718,35.982
35.709,35.957
35.696,35.934
35.682,35.912
35.665,35.891
35.645,35.87
35.624,35.85
35.602,35.831
35.578,35.812
35.554,35.794
35.529,35.777
35.504,35.76
35.479,35.745
35.455,35.73
35.431,35.716
35.408,35.703
35.385,35.689
35.363,35.676
35.341,35.663
35.321,35.649
35.301,35.635
35.283,35.621
35.266,35.607
35.25,35.592
35.234,35.578
35.22,35.564
35.206,35.551
35.192,35.538
35.178,35.526
35.164,35.516
35.15,35.507
35.136,35.501
35.122,35.497
35.107,35.496
35.092,35.497
35.076,35.502
35.061,35.509
35.047,35.518
35.034,35.529
35.022,35.541
35.012,35.553
35.003,35.566
34.995,35.579
34.99,35.591
34.985,35.602
34.981,35.612
34.977,35.621
34.973,35.63
34.969,35.637
34.964,35.644
34.961,35.649
34.957,35.654
34.954,35.659
34.95,35.662
34.947,35.664
34.943,35.665
34.94,35.664
34.936,35.662
34.932,35.658
34.928,35.652
34.923,35.645
34.917,35.638
34.911,35.629
34.903,35.618
34.895,35.606
34.886,35.593
34.876,35.577
34.865,35.56
34.855,35.541
34.845,35.52
34.835,35.499
34.826,35.478
34.818,35.458
34.812,35.438
34.808,35.418
34.807,35.4
34.809,35.382
34.816,35.366
34.828,35.35
34.847,35.337
34.872,35.324
34.906,35.313
34.95,35.302
35.004,35.291
35.068,35.281
35.144,35.271
35.23,35.26
35.326,35.25
35.43,35.239
35.541,35.229
35.657,35.218
35.775,35.208
35.893,35.199
36.009,35.191
36.12,35.184
36.225,35.178
36.321,35.173
36.406,35.17
36.479,35.169
36.54,35.168
36.587,35.168
36.62,35.17
36.64,35.172
36.647,35.174
36.642,35.177
36.626,35.179
36.601,35.18
36.567,35.181
36.526,35.182
36.479,35.182
36.427,35.182
36.373,35.182
36.316,35.181
36.259,35.18
36.202,35.179
36.145,35.177
36.09,35.174
36.037,35.17
35.986,35.165
35.937,35.159
35.891,35.153
35.849,35.146
35.81,35.14
35.774,35.135
35.741,35.13
35.71,35.126
35.682,35.123
35.657,35.121
35.632,35.118
35.609,35.116
35.585,35.114
35.56,35.112
35.534,35.111
35.508,35.11
35.481,35.109
35.453,35.109
35.424,35.111
35.396,35.112
35.368,35.115
35.341,35.119
35.317,35.122
35.295,35.126
35.276,35.13
35.261,35.134
35.25,35.138
35.243,35.14
35.24,35.139
35.241,35.136
35.247,35.131
35.258,35.123
35.273,35.114
35.291,35.104
35.314,35.093
35.34,35.082
35.368,35.07
35.399,35.059
35.431,35.049
35.462,35.041
35.494,35.033
35.525,35.027
35.554,35.023
35.582,35.02
35.607,35.019
35.629,35.018
35.648,35.019
35.664,35.02
35.676,35.022
35.684,35.023
35.688,35.025
35.688,35.026
35.683,35.026
35.676,35.025
35.665,35.022
35.651,35.019
35.635,35.013
35.618,35.007
35.599,34.999
35.579,34.99
35.558,34.982
35.537,34.973
35.517,34.965
35.496,34.959
35.475,34.954
35.453,34.951
35.431,34.952
35.409,34.955
35.386,34.963
35.363,34.975
35.34,34.993
35.316,35.016
35.292,35.047
35.268,35.086
35.245,35.134
35.222,35.191
35.2,35.258
35.179,35.334
35.159,35.419
35.14,35.511
35.122,35.609
35.105,35.712
35.09,35.815
35.075,35.919
35.06,36.02
35.046,36.115
35.033,36.203
35.02,36.281
35.009,36.349
34.999,36.405
34.991,36.448
34.984,36.477
34.978,36.494
34.972,36.499
34.967,36.492
34.963,36.475
34.958,36.449
34.954,36.416
34.95,36.376
34.945,36.33
34.94,36.28
34.935,36.227
34.93,36.173
34.923,36.118
34.916,36.063
34.907,36.01
34.898,35.96
34.888,35.912
34.878,35.869
34.868,35.829
34.86,35.794
34.853,35.764
34.848,35.739
34.843,35.717
34.841,35.7
34.84,35.685
34.841,35.673
34.844,35.664
34.847,35.656
34.85,35.65
34.854,35.645
34.856,35.64
34.859,35.637
34.86,35.634
34.861,35.63
34.861,35.625
34.86,35.619
34.858,35.611
34.856,35.601
34.854,35.587
34.852,35.572
34.85,35.554
34.847,35.534
34.845,35.512
34.843,35.489
34.843,35.466
34.844,35.443
34.85,35.422
34.861,35.403
34.879,35.388
34.905,35.376
34.942,35.368
34.99,35.364
35.051,35.364
35.125,35.369
35.211,35.377
35.309,35.389
35.415,35.405
35.529,35.423
35.648,35.443
35.77,35.464
35.891,35.487
36.01,35.51
36.124,35.533
36.231,35.556
36.328,35.577
36.414,35.597
36.488,35.615
36.547,35.631
36.593,35.644
36.624,35.654
36.641,35.662
36.645,35.668
36.638,35.672
36.619,35.672
36.592,35.671
36.556,35.667
36.515,35.66
36.468,35.651
36.417,35.639
36.364,35.624
36.309,35.606
36.253,35.587
36.196,35.565
36.14,35.541
36.084,35.516
36.03,35.49
35.978,35.464
35.929,35.439
35.882,35.414
35.839,35.391
35.798,35.369
35.761,35.348
35.727,35.329
35.695,35.311
35.666,35.294
35.64,35.279
35.616,35.264
35.593,35.251
35.572,35.239
35.552,35.228
35.532,35.219
35.514,35.21
35.496,35.202
35.479,35.194
35.46,35.187
35.441,35.182
35.422,35.176
35.402,35.171
35.383,35.166
35.364,35.162
35.348,35.158
35.333,35.155
35.32,35.152
35.31,35.15
35.304,35.147
35.302,35.145
35.304,35.143
35.31,35.14
35.321,35.138
35.337,35.135
35.356,35.131
35.378,35.128
35.404,35.125
35.432,35.123
35.461,35.12
35.491,35.118
35.521,35.116
35.55,35.114
35.578,35.112
35.603,35.111
35.626,35.109
35.646,35.108
35.664,35.107
35.678,35.106
35.689,35.106
35.696,35.106
35.701,35.105
35.702,35.104
35.702,35.102
35.698,35.099
35.693,35.097
35.685,35.096
35.674,35.095
35.662,35.095
35.648,35.097
35.632,35.099
35.615,35.101
35.596,35.104
35.576,35.106
35.555,35.108
35.533,35.109
35.509,35.108
35.485,35.107
35.461,35.105
35.437,35.103
35.413,35.099
35.389,35.095
35.366,35.091
35.344,35.087
35.323,35.083
35.303,35.079
35.283,35.074
35.264,35.07
35.245,35.065
35.227,35.06
35.208,35.055
35.19,35.049
35.172,35.043
35.155,35.038
35.138,35.032
35.123,35.027
35.108,35.021
35.095,35.016
35.084,35.011
35.073,35.007
35.064,35.002
35.056,34.997
35.05,34.993
35.045,34.989
35.04,34.985
35.036,34.981
35.031,34.978
35.027,34.975
35.022,34.972
35.017,34.97
35.013,34.968
35.009,34.967
35.007,34.966
35.007,34.965
35.007,34.964
35.009,34.962
35.012,34.961
35.016,34.959
35.02,34.956
35.024,34.951
35.027,34.946
35.028,34.94
35.027,34.933
35.024,34.925
35.019,34.917
35.011,34.909
35.003,34.902
34.993,34.896
34.982,34.893
34.97,34.893
34.959,34.898
34.948,34.91
34.937,34.93
34.928,34.959
34.92,34.998
34.912,35.048
34.906,35.109
34.902,35.181
34.899,35.263
34.896,35.353
34.894,35.45
34.893,35.553
34.891,35.658
34.89,35.763
34.89,35.865
34.89,35.963
34.891,36.054
34.896,36.137
34.904,36.209
34.918,36.272
34.94,36.323
34.972,36.364
35.014,36.393
35.068,36.411
35.135,36.418
35.214,36.415
35.304,36.403
35.404,36.382
35.514,36.355
35.63,36.321
35.75,36.281
35.872,36.237
35.991,36.188
36.107,36.137
36.216,36.083
36.316,36.028
36.405,35.972
36.482,35.918
36.545,35.866
36.595,35.816
36.631,35.77
36.653,35.729
36.661,35.692
36.655,35.66
36.637,35.631
36.608,35.606
36.569,35.584
36.522,35.565
36.467,35.548
36.408,35.534
36.345,35.522
36.28,35.512
36.215,35.503
36.15,35.496
36.087,35.489
36.026,35.482
35.967,35.475
35.911,35.468
35.86,35.46
35.813,35.451
35.77,35.441
35.732,35.431
35.699,35.419
35.67,35.406
35.644,35.392
35.621,35.378
35.601,35.363
35.582,35.348
35.564,35.334
35.546,35.321
35.527,35.311
35.506,35.304
35.485,35.3
35.461,35.299
35.437,35.301
35.411,35.307
35.384,35.315
35.357,35.325
35.33,35.338
35.304,35.352
35.28,35.368
35.259,35.385
35.24,35.403
35.226,35.421
35.215,35.439
35.207,35.457
35.204,35.473
35.204,35.488
35.209,35.502
35.217,35.514
35.229,35.524
35.243,35.531
35.261,35.537
35.282,35.54
35.304,35.541
35.329,35.54
35.355,35.537
35.382,35.531
35.41,35.524
35.438,35.516
35.465,35.507
35.492,35.496
35.517,35.484
35.54,35.471
35.559,35.456
35.576,35.44
35.589,35.423
35.599,35.404
35.605,35.384
35.607,35.364
35.606,35.343
35.6,35.322
35.59,35.302
35.578,35.282
35.562,35.264
35.545,35.246
35.526,35.229
35.505,35.212
35.483,35.196
35.461,35.181
35.437,35.166
35.414,35.152
35.39,35.139
35.366,35.126
35.342,35.113
35.319,35.101
35.297,35.09
35.275,35.079
35.255,35.068
35.236,35.057
35.218,35.047
35.2,35.037
35.183,35.028
35.166,35.019
35.149,35.011
35.133,35.004
35.118,34.997
35.102,34.99
35.086,34.985
35.07,34.98
35.053,34.976
35.037,34.973
35.02,34.97
35.003,34.968
34.987,34.965
34.97,34.963
34.954,34.96
34.939,34.956
34.924,34.952
34.911,34.948
34.9,34.945
34.89,34.942
34.883,34.941
34.878,34.941
34.875,34.943
34.874,34.946
34.875,34.951
34.878,34.956
34.881,34.962
34.886,34.968
34.89,34.974
34.895,34.98
34.9,34.984
34.904,34.988
34.908,34.991
34.91,34.992
34.911,34.992
34.911,34.991
34.909,34.99
34.906,34.988
34.902,34.986
34.896,34.984
34.889,34.982
34.882,34.98
34.875,34.977
34.869,34.974
34.863,34.971
34.858,34.968
34.854,34.964
34.85,34.96
34.846,34.957
34.841,34.954
34.837,34.951
34.832,34.949
34.828,34.947
34.823,34.946
34.817,34.945
34.811,34.945
34.804,34.944
34.798,34.943
34.792,34.942
34.787,34.939
34.783,34.936
34.781,34.932
34.781,34.928
34.785,34.924
34.793,34.92
34.807,34.917
34.828,34.915
34.858,34.914
34.899,34.913
34.951,34.912
35.015,34.912
35.091,34.912
35.178,34.912
35.276,34.911
35.383,34.91
35.497,34.908
35.616,34.906
35.738,34.903
35.858,34.9
35.975,34.897
36.087,34.895
36.19,34.895
36.284,34.897
36.367,34.903
36.438,34.914
36.498,34.931
36.544,34.956
36.579,34.991
36.6,35.036
36.608,35.09
36.604,35.155
36.588,35.229
36.561,35.311
36.524,35.401
36.478,35.495
36.424,35.593
36.364,35.692
36.299,35.79
36.231,35.884
36.161,35.971
36.091,36.051
36.022,36.12
35.955,36.179
35.891,36.225
35.83,36.259
35.774,36.279
35.722,36.288
35.676,36.285
35.635,36.272
35.598,36.25
35.565,36.22
35.536,36.183
35.509,36.14
35.485,36.093
35.463,36.042
35.442,35.989
35.423,35.935
35.405,35.881
35.385,35.828
35.366,35.777
35.346,35.728
35.325,35.682
35.304,35.639
35.282,35.599
35.26,35.564
35.238,35.532
35.216,35.503
35.196,35.478
35.178,35.457
35.162,35.438
35.15,35.422
35.142,35.408
35.139,35.396
35.139,35.384
35.143,35.372
35.151,35.359
35.164,35.347
35.181,35.333
35.201,35.319
35.224,35.305
35.25,35.289
35.278,35.273
35.307,35.255
35.338,35.237
35.37,35.219
35.4,35.2
35.431,35.182
35.46,35.164
35.488,35.148
35.515,35.133
35.54,35.122
35.562,35.114
35.581,35.109
35.597,35.109
35.611,35.112
35.62,35.12
35.626,35.131
35.628,35.147
35.626,35.165
35.619,35.188
35.608,35.212
35.593,35.239
35.574,35.267
35.552,35.296
35.527,35.324
35.5,35.351
35.471,35.377
35.44,35.4
35.409,35.42
35.379,35.437
35.35,35.451
35.322,35.461
35.295,35.468
35.269,35.472
35.244,35.472
35.22,35.47
35.197,35.465
35.176,35.458
35.155,35.449
35.136,35.439
35.117,35.429
35.1,35.418
35.084,35.408
35.068,35.397
35.054,35.387
35.041,35.375
35.028,35.364
35.015,35.351
35.003,35.338
34.992,35.324
34.982,35.31
34.972,35.295
34.963,35.279
34.955,35.264
34.947,35.248
34.941,35.233
34.936,35.216
34.932,35.2
34.929,35.183
34.929,35.166
34.929,35.149
34.932,35.133
34.936,35.117
34.94,35.101
34.946,35.086
34.951,35.072
34.956,35.058
34.961,35.046
34.965,35.033
34.968,35.022
34.972,35.01
34.975,34.999
34.978,34.989
34.981,34.98
34.983,34.972
34.984,34.965
34.985,34.959
34.987,34.956
34.987,34.953
34.987,34.952
34.986,34.952
34.985,34.954
34.983,34.956
34.98,34.96
34.977,34.963
34.974,34.968
34.97,34.972
34.967,34.977
34.964,34.983
34.961,34.988
34.958,34.994
34.955,35
34.953,35.005
34.952,35.01
34.953,35.015
34.955,35.019
34.959,35.022
34.965,35.024
34.975,35.025
34.989,35.023
35.009,35.021
35.035,35.016
35.069,35.011
35.113,35.005
35.166,35
35.229,34.996
35.303,34.992
35.385,34.989
35.477,34.987
35.575,34.985
35.679,34.983
35.787,34.98
35.895,34.977
36.003,34.974
36.106,34.971
36.204,34.967
36.293,34.963
36.373,34.96
36.443,34.955
36.5,34.951
36.546,34.945
36.579,34.94
36.599,34.935
36.606,34.929
36.602,34.924
36.586,34.919
36.56,34.915
36.525,34.911
36.482,34.908
36.432,34.906
36.378,34.903
36.319,34.901
36.257,34.898
36.194,34.895
36.129,34.892
36.065,34.89
36.002,34.888
35.941,34.887
35.883,34.886
35.829,34.884
35.779,34.883
35.733,34.882
35.691,34.881
35.654,34.879
35.621,34.878
35.592,34.877
35.567,34.876
35.544,34.875
35.524,34.876
35.505,34.876
35.486,34.876
35.468,34.876
35.449,34.875
35.43,34.872
35.409,34.869
35.387,34.865
35.364,34.862
35.341,34.858
35.319,34.855
35.298,34.852
35.278,34.851
35.259,34.852
35.241,34.855
35.227,34.862
35.215,34.875
35.208,34.895
35.204,34.923
35.205,34.96
35.21,35.006
35.218,35.063
35.23,35.13
35.245,35.207
35.264,35.293
35.286,35.386
35.31,35.486
35.337,35.591
35.366,35.697
35.396,35.804
35.426,35.907
35.457,36.006
35.488,36.097
35.518,36.178
35.547,36.249
35.573,36.308
35.596,36.354
35.616,36.387
35.632,36.406
35.644,36.413
35.651,36.407
35.654,36.389
35.653,36.361
35.647,36.324
35.638,36.28
35.625,36.231
35.608,36.178
35.589,36.122
35.567,36.066
35.543,36.009
35.518,35.954
35.49,35.902
35.462,35.852
35.433,35.806
35.404,35.763
35.374,35.724
35.344,35.689
35.315,35.658
35.287,35.631
35.26,35.608
35.235,35.587
35.212,35.57
35.19,35.555
35.171,35.543
35.154,35.532
35.138,35.523
35.124,35.515
35.11,35.508
35.097,35.502
35.085,35.496
35.074,35.491
35.063,35.486
35.053,35.481
35.044,35.476
35.035,35.47
35.027,35.462
35.019,35.453
35.012,35.442
35.004,35.43
34.997,35.416
34.99,35.401
34.983,35.386
34.976,35.371
34.969,35.357
34.963,35.345
34.959,35.335
34.955,35.327
34.953,35.322
34.952,35.319
34.953,35.319
34.955,35.322
34.957,35.327
34.96,35.334
34.963,35.344
34.966,35.356
34.969,35.37
34.97,35.384
34.972,35.398
34.972,35.413
34.971,35.427
34.969,35.441
34.966,35.454
34.962,35.467
34.958,35.479
34.953,35.491
34.947,35.501
34.941,35.51
34.934,35.517
34.925,35.523
34.917,35.527
34.908,35.53
34.9,35.531
34.892,35.531
34.884,35.529
34.878,35.526
34.872,35.522
34.866,35.515
34.862,35.506
34.859,35.496
34.857,35.483
34.856,35.468
34.857,35.451
34.862,35.433
34.87,35.414
34.882,35.394
34.901,35.374
34.927,35.354
34.96,35.335
35.002,35.318
35.055,35.302
35.117,35.287
35.189,35.273
35.271,35.261
35.363,35.249
35.463,35.237
35.57,35.225
35.682,35.213
35.797,35.201
35.913,35.188
36.026,35.175
36.135,35.162
36.238,35.149
36.332,35.138
36.416,35.127
36.488,35.118
36.548,35.11
36.595,35.103
36.628,35.096
36.649,35.09
36.657,35.085
36.653,35.079
36.637,35.074
36.611,35.069
36.576,35.064
36.532,35.06
36.481,35.056
36.424,35.053
36.362,35.049
36.298,35.046
36.233,35.044
36.167,35.041
36.102,35.039
36.04,35.038
35.98,35.037
35.923,35.037
35.87,35.037
35.821,35.037
35.776,35.038
35.736,35.039
35.7,35.04
35.668,35.042
35.64,35.044
35.617,35.046
35.596,35.048
35.577,35.049
35.559,35.05
35.542,35.049
35.525,35.048
35.507,35.046
35.488,35.043
35.466,35.039
35.443,35.033
35.418,35.028
35.392,35.022
35.364,35.017
35.336,35.012
35.309,35.007
35.282,35.003
35.258,34.999
35.236,34.996
35.217,34.992
35.202,34.989
35.191,34.986
35.185,34.983
35.183,34.98
35.185,34.976
35.19,34.973
35.2,34.969
35.213,34.966
35.229,34.963
35.248,34.961
35.268,34.96
35.291,34.961
35.315,34.963
35.339,34.966
35.365,34.97
35.39,34.974
35.415,34.978
35.439,34.981
35.461,34.984
35.482,34.986
35.5,34.986
35.516,34.986
35.529,34.984
35.539,34.982
35.546,34.978
35.549,34.973
35.549,34.968
35.546,34.962
35.539,34.956
35.529,34.948
35.516,34.941
35.501,34.933
35.483,34.925
35.464,34.917
35.443,34.909
35.42,34.903
35.397,34.898
35.373,34.897
35.347,34.899
35.322,34.908
35.296,34.924
35.27,34.949
35.245,34.983
35.22,35.027
35.195,35.082
35.172,35.147
35.151,35.222
35.13,35.306
35.111,35.397
35.092,35.494
35.075,35.595
35.059,35.697
35.044,35.8
35.029,35.9
35.014,35.996
35,36.085
34.986,36.167
34.973,36.239
34.959,36.301
34.946,36.352
34.933,36.39
34.92,36.416
34.908,36.43
34.896,36.433
34.885,36.424
34.875,36.407
34.867,36.38
34.859,36.346
34.852,36.306
34.847,36.261
34.843,36.213
34.841,36.163
34.841,36.113
34.841,36.063
34.843,36.016
34.845,35.971
34.847,35.929
34.849,35.891
34.85,35.857
34.85,35.827
34.849,35.8
34.846,35.777
34.843,35.757
34.839,35.74
34.834,35.725
34.828,35.712
34.821,35.701
34.814,35.691
34.806,35.681
34.798,35.672
34.79,35.663
34.782,35.655
34.774,35.646
34.767,35.638
34.761,35.629
34.755,35.619
34.75,35.609
34.745,35.597
34.742,35.584
34.739,35.569
34.736,35.554
34.735,35.538
34.733,35.521
34.733,35.505
34.733,35.489
34.734,35.473
34.738,35.458
34.745,35.444
34.757,35.432
34.773,35.423
34.796,35.415
34.827,35.411
34.866,35.408
34.915,35.409
34.975,35.413
35.045,35.419
35.125,35.429
35.215,35.442
35.313,35.457
35.418,35.475
35.529,35.494
35.642,35.514
35.755,35.535
35.866,35.555
35.973,35.575
36.073,35.593
36.164,35.61
36.245,35.624
36.314,35.635
36.37,35.643
36.413,35.649
36.441,35.652
36.457,35.653
36.459,35.651
36.449,35.647
36.427,35.641
36.395,35.634
36.354,35.625
36.305,35.614
36.25,35.602
36.191,35.589
36.128,35.574
36.062,35.56
35.995,35.544
35.927,35.528
35.861,35.511
35.797,35.494
35.736,35.477
35.678,35.458
35.624,35.439
35.575,35.42
35.53,35.4
35.489,35.381
35.453,35.361
35.42,35.342
35.392,35.323
35.367,35.305
35.345,35.288
35.324,35.272
35.306,35.258
35.288,35.245
35.272,35.233
35.255,35.223
35.238,35.213
35.22,35.205
35.201,35.197
35.182,35.191
35.16,35.185
35.139,35.18
35.117,35.177
35.095,35.174
35.075,35.172
35.055,35.17
35.039,35.169
35.025,35.168
35.014,35.168
35.008,35.167
35.005,35.167
35.006,35.166
35.011,35.165
35.019,35.165
35.033,35.163
35.051,35.162
35.073,35.16
35.098,35.159
35.127,35.157
35.157,35.155
35.189,35.152
35.222,35.149
35.254,35.146
35.284,35.142
35.311,35.138
35.336,35.134
35.356,35.13
35.372,35.126
35.383,35.122
35.39,35.118
35.393,35.114
35.392,35.111
35.388,35.107
35.382,35.105
35.373,35.102
35.362,35.101
35.349,35.1
35.335,35.1
35.319,35.099
35.302,35.099
35.285,35.098
35.267,35.097
35.248,35.096
35.23,35.093
35.212,35.09
35.193,35.087
35.174,35.084
35.155,35.081
35.134,35.078
35.113,35.076
35.09,35.074
35.066,35.073
35.043,35.073
35.018,35.073
34.994,35.075
34.97,35.076
34.946,35.078
34.922,35.079
34.899,35.081
34.877,35.082
34.856,35.083
34.837,35.082
34.819,35.081
34.804,35.078
34.79,35.074
34.779,35.069
34.769,35.064
34.761,35.058
34.754,35.053
34.747,35.047
34.741,35.042
34.736,35.037
34.732,35.032
34.727,35.028
34.722,35.023
34.717,35.018
34.711,35.013
34.705,35.007
34.698,35.001
34.691,34.994
34.685,34.987
34.679,34.979
34.673,34.971
34.668,34.964
34.663,34.958
34.658,34.953
34.654,34.95
34.651,34.952
34.649,34.958
34.647,34.97
34.646,34.989
34.645,35.016
34.644,35.052
34.644,35.098
34.643,35.153
34.642,35.218
34.641,35.292
34.64,35.373
34.639,35.461
34.637,35.553
34.635,35.648
34.632,35.745
34.628,35.841
34.624,35.935
34.619,36.024
34.613,36.108
34.607,36.185
34.601,36.252
34.595,36.31
34.59,36.357
34.585,36.393
34.581,36.417
34.577,36.43
34.574,36.433
34.571,36.426
34.57,36.41
34.569,36.386
34.57,36.356
34.573,36.321
34.58,36.28
34.592,36.236
34.611,36.19
34.639,36.142
34.676,36.094
34.725,36.046
34.784,35.999
34.854,35.955
34.935,35.913
35.025,35.874
35.124,35.839
35.23,35.808
35.339,35.78
35.45,35.755
35.56,35.733
35.666,35.715
35.766,35.698
35.858,35.685
35.939,35.673
36.008,35.663
36.064,35.655
36.107,35.647
36.136,35.641
36.153,35.634
36.157,35.627
36.15,35.62
36.132,35.611
36.105,35.601
36.069,35.589
36.026,35.575
35.978,35.56
35.925,35.543
35.867,35.526
35.807,35.508
35.744,35.491
35.68,35.475
35.614,35.461
35.549,35.448
35.485,35.437
35.423,35.429
35.364,35.424
35.31,35.423
35.26,35.426
35.216,35.431
35.177,35.44
35.143,35.451
35.114,35.465
35.088,35.481
35.066,35.498
35.046,35.517
35.028,35.536
35.01,35.555
34.991,35.574
34.972,35.592
34.951,35.609
34.928,35.625
34.905,35.64
34.881,35.653
34.857,35.664
34.833,35.673
34.811,35.678
34.791,35.681
34.774,35.681
34.759,35.679
34.748,35.674
34.741,35.667
34.737,35.657
34.736,35.646
34.74,35.634
34.747,35.621
34.757,35.606
34.771,35.592
34.787,35.577
34.807,35.561
34.83,35.545
34.855,35.529
34.882,35.512
34.91,35.495
34.94,35.478
34.97,35.461
35,35.444
35.031,35.427
35.06,35.411
35.087,35.395
35.113,35.38
35.136,35.365
35.156,35.351
35.173,35.338
35.186,35.326
35.196,35.316
35.202,35.308
35.204,35.3
35.201,35.294
35.194,35.287
35.182,35.281
35.167,35.274
35.148,35.267
35.127,35.259
35.104,35.252
35.08,35.244
35.055,35.236
35.031,35.228
35.006,35.22
34.983,35.212
34.959,35.204
34.937,35.198
34.915,35.191
34.893,35.186
34.872,35.181
34.852,35.177
34.832,35.174
34.812,35.172
34.793,35.171
34.774,35.17
34.756,35.171
34.737,35.172
34.719,35.173
34.701,35.175
34.683,35.177
34.665,35.179
34.648,35.18
34.631,35.182
34.614,35.183
34.598,35.185
34.582,35.187
34.568,35.189
34.554,35.191
34.541,35.193
34.529,35.195
34.518,35.196
34.508,35.197
34.5,35.198
34.493,35.198
34.488,35.197
34.485,35.195
34.484,35.192
34.484,35.188
34.485,35.184
34.487,35.178
34.489,35.172
34.492,35.165
34.493,35.159
34.494,35.152
34.494,35.146
34.493,35.14
34.492,35.134
34.489,35.13
34.487,35.125
34.483,35.121
34.48,35.118
34.477,35.115
34.473,35.112
34.47,35.11
34.468,35.108
34.465,35.106
34.463,35.104
34.462,35.102
34.461,35.101
34.461,35.099
34.462,35.097
34.462,35.095
34.461,35.093
34.461,35.09
34.459,35.086
34.456,35.082
34.452,35.078
34.448,35.072
34.442,35.065
34.436,35.057
34.428,35.049
34.419,35.041
34.41,35.032
34.4,35.024
34.391,35.017
34.382,35.01
34.374,35.004
34.366,34.999
34.359,34.996
34.354,34.993
34.35,34.991
34.348,34.991
34.351,34.992
34.359,34.993
34.373,34.996
34.396,35
34.428,35.004
34.472,35.009
34.527,35.016
34.593,35.025
34.672,35.037
34.761,35.055
34.86,35.078
34.966,35.109
35.077,35.149
35.19,35.197
35.304,35.254
35.414,35.32
35.52,35.393
35.618,35.473
35.708,35.559
35.787,35.648
35.854,35.741
35.909,35.834
35.952,35.926
35.981,36.015
35.997,36.099
36.001,36.176
35.992,36.245
35.973,36.306
35.943,36.356
35.905,36.395
35.86,36.424
35.808,36.442
35.752,36.45
35.693,36.447
35.631,36.436
35.568,36.417
35.505,36.391
35.443,36.359
35.383,36.323
35.324,36.284
35.269,36.242
35.215,36.199
35.165,36.155
35.119,36.111
35.076,36.068
35.036,36.025
35.001,35.984
34.969,35.945
34.941,35.909
34.917,35.875
34.895,35.844
34.876,35.816
34.858,35.791
34.842,35.768
34.826,35.747
34.81,35.729
34.794,35.712
34.777,35.696
34.759,35.681
34.741,35.666
34.723,35.651
34.705,35.637
34.689,35.622
34.674,35.607
34.662,35.592
34.652,35.576
34.646,35.559
34.644,35.541
34.645,35.524
34.65,35.507
34.66,35.49
34.674,35.476
34.693,35.464
34.715,35.454
34.741,35.448
34.77,35.444
34.802,35.443
34.837,35.445
34.873,35.451
34.909,35.458
34.944,35.469
34.979,35.481
35.012,35.495
35.043,35.51
35.071,35.526
35.095,35.542
35.116,35.558
35.133,35.573
35.145,35.588
35.152,35.602
35.155,35.615
35.153,35.626
35.146,35.637
35.136,35.646
35.121,35.655
35.104,35.662
35.084,35.668
35.063,35.672
35.04,35.675
35.017,35.676
34.994,35.676
34.97,35.673
34.947,35.669
34.923,35.662
34.9,35.653
34.877,35.643
34.855,35.631
34.834,35.617
34.814,35.603
34.795,35.588
34.776,35.574
34.758,35.559
34.74,35.545
34.724,35.532
34.708,35.518
34.694,35.505
34.681,35.492
34.669,35.479
34.659,35.466
34.65,35.453
34.641,35.441
34.633,35.428
34.625,35.416
34.617,35.405
34.609,35.393
34.603,35.382
34.596,35.371
34.591,35.36
34.586,35.349
34.581,35.339
34.576,35.329
34.573,35.32
34.57,35.311
34.567,35.302
34.564,35.293
34.56,35.285
34.557,35.277
34.553,35.269
34.549,35.262
34.545,35.256
34.54,35.251
34.537,35.247
34.533,35.243
34.529,35.241
34.524,35.24
34.518,35.239
34.512,35.239
34.506,35.24
34.5,35.242
34.495,35.245
34.491,35.248
34.488,35.252
34.485,35.256
34.483,35.259
34.482,35.262
34.482,35.264
34.483,35.264
34.484,35.264
34.484,35.263
34.484,35.261
34.484,35.259
34.482,35.255
34.48,35.251
34.478,35.247
34.474,35.241
34.469,35.236
34.463,35.23
34.457,35.224
34.451,35.217
34.444,35.211
34.437,35.204
34.43,35.198
34.423,35.193
34.417,35.189
34.413,35.185
34.409,35.181
34.407,35.179
34.406,35.177
34.407,35.176
34.408,35.177
34.409,35.179
34.411,35.181
34.415,35.185
34.421,35.188
34.431,35.191
34.444,35.193
34.464,35.195
34.49,35.196
34.525,35.197
34.57,35.197
34.626,35.196
34.693,35.195
34.771,35.193
34.859,35.19
34.954,35.185
35.056,35.179
35.162,35.173
35.27,35.165
35.378,35.156
35.483,35.148
35.585,35.139
35.68,35.131
35.767,35.124
35.844,35.118
35.911,35.112
35.965,35.107
36.007,35.102
36.036,35.098
36.052,35.094
36.056,35.091
36.048,35.087
36.03,35.084
36.003,35.081
35.967,35.079
35.924,35.077
35.874,35.076
35.819,35.075
35.76,35.075
35.698,35.075
35.635,35.075
35.57,35.075
35.506,35.076
35.444,35.075
35.383,35.074
35.326,35.072
35.272,35.069
35.222,35.064
35.177,35.059
35.136,35.053
35.1,35.046
35.068,35.041
35.039,35.036
35.014,35.033
34.992,35.031
34.972,35.032
34.953,35.036
34.934,35.045
34.914,35.06
34.892,35.083
34.869,35.114
34.845,35.154
34.819,35.205
34.793,35.266
34.766,35.338
34.74,35.419
34.715,35.508
34.692,35.604
34.672,35.706
34.656,35.81
34.644,35.915
34.638,36.018
34.638,36.118
34.642,36.211
34.652,36.296
34.667,36.371
34.686,36.435
34.709,36.487
34.736,36.527
34.766,36.556
34.798,36.572
34.832,36.578
34.867,36.573
34.902,36.559
34.938,36.537
34.974,36.507
35.008,36.472
35.04,36.433
35.07,36.39
35.097,36.345
35.121,36.299
35.142,36.252
35.159,36.207
35.172,36.162
35.181,36.121
35.185,36.082
35.186,36.048
35.183,36.017
35.178,35.989
35.171,35.966
35.161,35.945
35.15,35.928
35.137,35.913
35.122,35.9
35.107,35.888
35.09,35.878
35.071,35.87
35.051,35.863
35.029,35.857
35.006,35.852
34.981,35.849
34.955,35.847
34.929,35.846
34.903,35.844
34.876,35.842
34.849,35.84
34.823,35.836
34.798,35.831
34.774,35.824
34.752,35.817
34.732,35.809
34.714,35.801
34.698,35.792
34.684,35.783
34.672,35.774
34.661,35.765
34.652,35.756
34.645,35.747
34.638,35.738
34.633,35.729
34.628,35.72
34.623,35.712
34.62,35.704
34.617,35.697
34.615,35.692
34.614,35.688
34.612,35.686
34.611,35.686
34.61,35.688
34.609,35.693
34.606,35.699
34.603,35.706
34.599,35.713
34.595,35.721
34.589,35.729
34.583,35.737
34.576,35.744
34.569,35.751
34.564,35.759
34.561,35.766
34.559,35.773
34.559,35.778
34.561,35.782
34.566,35.784
34.572,35.783
34.58,35.781
34.588,35.776
34.596,35.769
34.603,35.76
34.609,35.749
34.613,35.737
34.615,35.723
34.616,35.708
34.614,35.692
34.61,35.676
34.605,35.659
34.597,35.643
34.589,35.627
34.582,35.611
34.574,35.596
34.568,35.583
34.562,35.57
34.556,35.558
34.552,35.546
34.547,35.535
34.544,35.525
34.541,35.514
34.538,35.504
34.536,35.494
34.535,35.484
34.532,35.474
34.529,35.465
34.526,35.457
34.521,35.449
34.517,35.441
34.511,35.433
34.504,35.426
34.498,35.42
34.492,35.414
34.486,35.409
34.482,35.406
34.479,35.404
34.48,35.403
34.484,35.402
34.494,35.403
34.512,35.403
34.538,35.403
34.573,35.402
34.62,35.401
34.679,35.398
34.75,35.395
34.833,35.392
34.926,35.389
35.029,35.386
35.14,35.383
35.256,35.381
35.374,35.378
35.493,35.374
35.609,35.37
35.721,35.366
35.826,35.361
35.921,35.357
36.007,35.352
36.08,35.348
36.141,35.345
36.188,35.341
36.221,35.338
36.24,35.335
36.246,35.331
36.239,35.326
36.219,35.322
36.19,35.318
36.15,35.314
36.102,35.31
36.047,35.307
35.987,35.304
35.924,35.301
35.859,35.299
35.793,35.296
35.728,35.293
35.664,35.291
35.603,35.289
35.546,35.288
35.492,35.288
35.442,35.288
35.396,35.288
35.354,35.289
35.316,35.289
35.281,35.288
35.25,35.287
35.221,35.286
35.195,35.284
35.17,35.281
35.147,35.277
35.125,35.272
35.103,35.267
35.082,35.26
35.06,35.253
35.039,35.245
35.017,35.236
34.995,35.228
34.974,35.219
34.952,35.21
34.931,35.202
34.912,35.194
34.894,35.187
34.878,35.181
34.865,35.177
34.854,35.175
34.848,35.175
34.845,35.177
34.845,35.18
34.849,35.185
34.856,35.192
34.867,35.2
34.881,35.208
34.899,35.216
34.92,35.223
34.945,35.229
34.973,35.233
35.004,35.234
35.037,35.234
35.072,35.232
35.107,35.228
35.143,35.223
35.179,35.216
35.213,35.208
35.245,35.2
35.275,35.19
35.301,35.18
35.324,35.17
35.343,35.16
35.358,35.151
35.368,35.142
35.375,35.135
35.378,35.13
35.377,35.125
35.371,35.121
35.362,35.117
35.35,35.115
35.335,35.113
35.319,35.112
35.301,35.112
35.281,35.113
35.26,35.115
35.239,35.117
35.217,35.12
35.194,35.123
35.172,35.127
35.149,35.132
35.127,35.137
35.105,35.144
35.083,35.152
35.061,35.163
35.04,35.179
35.021,35.2
35.001,35.229
34.983,35.265
34.964,35.311
34.944,35.366
34.926,35.43
34.907,35.504
34.89,35.586
34.874,35.675
34.859,35.77
34.845,35.869
34.833,35.969
34.823,36.069
34.814,36.165
34.807,36.257
34.802,36.342
34.798,36.419
34.794,36.486
34.791,36.542
34.788,36.587
34.786,36.621
34.785,36.642
34.784,36.652
34.783,36.651
34.781,36.641
34.779,36.621
34.776,36.594
34.773,36.561
34.771,36.522
34.767,36.48
34.763,36.434
34.758,36.386
34.754,36.337
34.75,36.289
34.747,36.241
34.745,36.194
34.746,36.15
34.748,36.107
34.753,36.066
34.759,36.029
34.766,35.994
34.773,35.963
34.781,35.935
34.788,35.911
34.796,35.89
34.802,35.874
34.807,35.86
34.811,35.85
34.814,35.843
34.815,35.838
34.816,35.834
34.816,35.831
34.816,35.828
34.815,35.826
34.814,35.823
34.813,35.819
34.812,35.813
34.813,35.805
34.814,35.796
34.816,35.785
34.82,35.772
34.823,35.758
34.827,35.744
34.83,35.729
34.832,35.714
34.833,35.701
34.832,35.689
34.829,35.679
34.825,35.67
34.819,35.663
34.811,35.659
34.802,35.656
34.791,35.656
34.78,35.657
34.768,35.66
34.756,35.664
34.744,35.67
34.734,35.677
34.727,35.684
34.724,35.692
34.726,35.701
34.734,35.711
34.751,35.722
34.778,35.733
34.815,35.743
34.864,35.754
34.925,35.763
35,35.772
35.086,35.78
35.183,35.787
35.289,35.792
35.401,35.796
35.517,35.799
35.635,35.8
35.753,35.8
35.866,35.799
35.974,35.795
36.072,35.79
36.16,35.782
36.236,35.773
36.298,35.761
36.347,35.747
36.381,35.731
36.403,35.714
36.41,35.695
36.406,35.675
36.389,35.656
36.363,35.636
36.328,35.618
36.284,35.6
36.235,35.583
36.18,35.567
36.121,35.552
36.06,35.537
35.998,35.521
35.936,35.506
35.875,35.491
35.815,35.475
35.758,35.46
35.703,35.445
35.652,35.431
35.604,35.418
35.56,35.406
35.519,35.394
35.482,35.384
35.448,35.374
35.418,35.366
35.39,35.358
35.364,35.352
35.34,35.347
35.317,35.343
35.296,35.341
35.274,35.339
35.253,35.339
35.231,35.339
35.208,35.34
35.185,35.34
35.162,35.34
35.139,35.34
35.116,35.339
35.094,35.338
35.072,35.336
35.053,35.334
35.036,35.33
35.023,35.326
35.014,35.321
35.009,35.315
35.008,35.31
35.013,35.305
35.021,35.3
35.034,35.295
35.051,35.291
35.071,35.287
35.095,35.284
35.121,35.28
35.15,35.277
35.18,35.274
35.211,35.271
35.242,35.269
35.274,35.267
35.304,35.266
35.333,35.265
35.36,35.265
35.385,35.266
35.408,35.268
35.429,35.269
35.448,35.271
35.464,35.272
35.477,35.272
35.488,35.272
35.496,35.272
35.501,35.271
35.505,35.269
35.506,35.266
35.504,35.263
35.5,35.259
35.493,35.253
35.483,35.247
35.47,35.239
35.454,35.23
35.435,35.221
35.413,35.212
35.389,35.204
35.364,35.196
35.336,35.189
35.309,35.183
35.28,35.177
35.251,35.171
35.223,35.164
35.195,35.156
35.168,35.148
35.142,35.14
35.117,35.133
35.093,35.126
35.071,35.12
35.052,35.114
35.034,35.109
35.019,35.105
35.006,35.102
34.995,35.099
34.987,35.097
34.981,35.096
34.976,35.095
34.973,35.094
34.97,35.093
34.967,35.092
34.964,35.092
34.961,35.091
34.958,35.089
34.954,35.087
34.949,35.084
34.943,35.081
34.937,35.076
34.93,35.072
34.922,35.066
34.914,35.061
34.906,35.055
34.897,35.048
34.89,35.041
34.883,35.034
34.877,35.027
34.873,35.021
34.87,35.014
34.868,35.009
34.867,35.004
34.866,35.001
34.866,35
34.867,34.999
34.867,34.999
34.868,35
34.869,35.001
34.87,35.002
34.87,35.002
34.87,35.002
34.868,35.002
34.867,35.002
34.865,35.002
34.862,35.002
34.86,35.001
34.857,35
34.855,34.999
34.854,34.996
34.853,34.994
34.852,34.991
34.852,34.99
34.853,34.991
34.855,34.995
34.857,35.004
34.86,35.019
34.862,35.041
34.865,35.072
34.868,35.112
34.871,35.161
34.872,35.221
34.873,35.291
34.872,35.37
34.869,35.458
34.865,35.552
34.859,35.652
34.852,35.753
34.844,35.854
34.835,35.953
34.826,36.048
34.818,36.136
34.812,36.215
34.806,36.285
34.802,36.345
34.801,36.392
34.802,36.428
34.808,36.452
34.82,36.464
34.838,36.466
34.865,36.457
34.902,36.44
34.95,36.414
35.009,36.383
35.081,36.346
35.163,36.306
35.256,36.263
35.358,36.219
35.467,36.174
35.581,36.129
35.697,36.086
35.813,36.043
35.926,36.003
36.034,35.964
36.134,35.928
36.223,35.893
36.301,35.86
36.366,35.828
36.418,35.798
36.457,35.769
36.482,35.743
36.495,35.72
36.495,35.7
36.483,35.684
36.46,35.671
36.428,35.66
36.386,35.651
36.338,35.644
36.283,35.638
36.223,35.632
36.158,35.627
36.091,35.622
36.023,35.615
35.956,35.607
35.89,35.598
35.827,35.587
35.766,35.575
35.71,35.561
35.657,35.547
35.609,35.532
35.565,35.517
35.526,35.502
35.489,35.49
35.456,35.479
35.426,35.471
35.397,35.466
35.371,35.464
35.347,35.465
35.325,35.47
35.304,35.478
35.284,35.488
35.264,35.5
35.245,35.514
35.225,35.53
35.205,35.546
35.185,35.564
35.165,35.581
35.146,35.598
35.128,35.614
35.112,35.63
35.099,35.645
35.089,35.659
35.084,35.671
35.083,35.681
35.086,35.689
35.094,35.695
35.106,35.699
35.122,35.7
35.141,35.699
35.163,35.696
35.189,35.69
35.217,35.683
35.247,35.674
35.28,35.664
35.313,35.652
35.347,35.639
35.382,35.626
35.416,35.611
35.45,35.594
35.481,35.577
35.509,35.56
35.534,35.542
35.555,35.524
35.573,35.506
35.586,35.488
35.595,35.471
35.6,35.454
35.6,35.438
35.597,35.421
35.59,35.405
35.58,35.388
35.568,35.372
35.553,35.355
35.535,35.338
35.516,35.322
35.495,35.305
35.474,35.29
35.453,35.274
35.432,35.26
35.41,35.246
35.389,35.234
35.368,35.223
35.347,35.212
35.326,35.203
35.306,35.196
35.286,35.189
35.266,35.183
35.246,35.178
35.227,35.174
35.208,35.171
35.189,35.17
35.171,35.171
35.154,35.173
35.138,35.176
35.122,35.18
35.107,35.184
35.092,35.188
35.078,35.191
35.065,35.194
35.054,35.196
35.043,35.198
35.033,35.198
35.023,35.198
35.015,35.197
35.008,35.196
35.001,35.194
34.995,35.192
34.99,35.19
34.987,35.188
34.985,35.187
34.984,35.186
34.983,35.185
34.984,35.185
34.986,35.185
34.987,35.184
34.989,35.183
34.989,35.181
34.989,35.179
34.988,35.175
34.986,35.171
34.984,35.166
34.98,35.16
34.977,35.154
34.973,35.149
34.97,35.144
34.968,35.14
34.966,35.137
34.964,35.135
34.964,35.134
34.963,35.134
34.963,35.135
34.961,35.136
34.96,35.138
34.958,35.139
34.957,35.139
34.956,35.138
34.956,35.136
34.955,35.133
34.954,35.127
34.953,35.12
34.95,35.112
34.948,35.103
34.944,35.094
34.941,35.084
34.938,35.074
34.934,35.063
34.93,35.053
34.925,35.042
34.919,35.032
34.913,35.022
34.908,35.013
34.902,35.004
34.897,34.998
34.892,34.992
34.887,34.988
34.883,34.985
34.88,34.982
34.878,34.98
34.876,34.979
34.876,34.978
34.877,34.977
34.879,34.977
34.886,34.977
34.896,34.978
34.913,34.978
34.936,34.978
34.967,34.977
35.007,34.976
35.056,34.974
35.116,34.97
35.185,34.966
35.265,34.961
35.354,34.955
35.452,34.948
35.556,34.942
35.665,34.936
35.776,34.93
35.888,34.924
35.995,34.919
36.097,34.914
36.19,34.908
36.273,34.903
36.343,34.897
36.4,34.89
36.442,34.884
36.469,34.877
36.483,34.872
36.482,34.867
36.468,34.863
36.443,34.862
36.407,34.862
36.362,34.866
36.309,34.873
36.25,34.884
36.186,34.901
36.118,34.925
36.049,34.956
35.98,34.997
35.912,35.048
35.847,35.109
35.785,35.18
35.726,35.26
35.672,35.35
35.622,35.446
35.577,35.547
35.536,35.653
35.499,35.759
35.466,35.865
35.437,35.968
35.412,36.067
35.388,36.16
35.367,36.244
35.346,36.319
35.326,36.384
35.306,36.437
35.286,36.478
35.265,36.507
35.242,36.524
35.218,36.53
35.193,36.526
35.166,36.511
35.14,36.488
35.114,36.458
35.091,36.423
35.07,36.383
35.053,36.34
35.04,36.296
35.032,36.251
35.029,36.206
35.03,36.163
35.037,36.121
35.049,36.082
35.064,36.047
35.083,36.014
35.105,35.984
35.13,35.957
35.157,35.932
35.186,35.908
35.217,35.887
35.248,35.867
35.28,35.849
35.312,35.833
35.344,35.819
35.373,35.807
35.401,35.797
35.427,35.788
35.45,35.78
35.469,35.773
35.486,35.765
35.501,35.758
35.512,35.75
35.52,35.741
35.525,35.731
35.526,35.72
35.524,35.708
35.52,35.695
35.512,35.682
35.502,35.668
35.489,35.654
35.474,35.639
35.457,35.624
35.438,35.609
35.418,35.595
35.396,35.581
35.372,35.568
35.348,35.557
35.322,35.548
35.296,35.541
35.27,35.537
35.244,35.535
35.22,35.535
35.196,35.537
35.174,35.542
35.153,35.549
35.133,35.558
35.114,35.569
35.097,35.581
35.081,35.594
35.066,35.608
35.053,35.621
35.042,35.635
35.032,35.649
35.023,35.662
35.016,35.674
35.01,35.685
35.005,35.694
35,35.7
34.996,35.705
34.991,35.706
34.987,35.706
34.983,35.702
34.979,35.696
34.975,35.687
34.97,35.676
34.965,35.663
34.96,35.648
34.955,35.631
34.949,35.613
34.943,35.594
34.937,35.573
34.931,35.552
34.925,35.531
34.921,35.51
34.917,35.49
34.914,35.471
34.912,35.453
34.912,35.436
34.912,35.421
34.913,35.406
34.915,35.392
34.915,35.38
34.916,35.367
34.916,35.356
34.915,35.344
34.913,35.333
34.91,35.322
34.907,35.311
34.904,35.3
34.9,35.29
34.896,35.279
34.892,35.269
34.889,35.26
34.887,35.251
34.885,35.243
34.884,35.235
34.884,35.228
34.884,35.221
34.885,35.214
34.885,35.208
34.884,35.202
34.883,35.197
34.88,35.192
34.876,35.187
34.871,35.183
34.865,35.18
34.857,35.176
34.849,35.173
34.841,35.169
34.834,35.165
34.827,35.161
34.82,35.156
34.815,35.152
34.811,35.147
34.809,35.143
34.809,35.14
34.813,35.138
34.82,35.137
34.833,35.136
34.854,35.137
34.883,35.139
34.922,35.142
34.972,35.145
35.032,35.148
35.104,35.152
35.187,35.155
35.278,35.158
35.377,35.16
35.48,35.161
35.588,35.161
35.695,35.159
35.802,35.156
35.904,35.152
36.002,35.146
36.091,35.14
36.171,35.132
36.241,35.124
36.297,35.115
36.341,35.107
36.371,35.1
36.388,35.093
36.392,35.088
36.384,35.084
36.364,35.08
36.334,35.077
36.296,35.075
36.25,35.074
36.198,35.074
36.143,35.074
36.085,35.076
36.025,35.078
35.966,35.081
35.906,35.084
35.848,35.088
35.792,35.091
35.738,35.095
35.687,35.097
35.638,35.099
35.593,35.1
35.55,35.1
35.509,35.099
35.471,35.097
35.436,35.095
35.403,35.092
35.373,35.089
35.345,35.085
35.32,35.08
35.296,35.075
35.274,35.07
35.252,35.066
35.231,35.061
35.211,35.058
35.191,35.054
35.172,35.051
35.154,35.047
35.136,35.042
35.119,35.037
35.104,35.032
35.091,35.027
35.08,35.022
35.072,35.019
35.066,35.015
35.063,35.013
35.064,35.012
35.068,35.011
35.076,35.011
35.087,35.01
35.102,35.01
35.12,35.009
35.141,35.008
35.165,35.007
35.192,35.007
35.221,35.006
35.251,35.007
35.283,35.009
35.315,35.014
35.346,35.023
35.377,35.037
35.405,35.059
35.432,35.09
35.455,35.131
35.476,35.182
35.494,35.244
35.509,35.316
35.521,35.396
35.529,35.484
35.534,35.577
35.534,35.673
35.532,35.771
35.525,35.869
35.515,35.965
35.502,36.057
35.485,36.145
35.467,36.226
35.446,36.299
35.424,36.364
35.4,36.419
35.375,36.464
35.35,36.498
35.326,36.521
35.302,36.534
35.278,36.537
35.257,36.531
35.236,36.517
35.217,36.495
35.199,36.467
35.182,36.433
35.167,36.394
35.153,36.352
35.139,36.308
35.125,36.263
35.111,36.218
35.096,36.174
35.081,36.131
35.065,36.091
35.05,36.053
35.034,36.018
35.019,35.986
35.004,35.957
34.991,35.931
34.978,35.908
34.966,35.888
34.955,35.87
34.946,35.854
34.937,35.84
34.93,35.827
34.924,35.816
34.918,35.806
34.914,35.796
34.91,35.788
34.907,35.781
34.904,35.774
34.903,35.769
34.901,35.765
34.9,35.76
34.899,35.755
34.897,35.749
34.895,35.743
34.891,35.735
34.885,35.727
34.879,35.718
34.871,35.709
34.862,35.7
34.853,35.692
34.844,35.685
34.836,35.68
34.83,35.677
34.825,35.675
34.821,35.676
34.819,35.68
34.819,35.684
34.82,35.69
34.823,35.697
34.827,35.704
34.83,35.712
34.834,35.719
34.837,35.727
34.839,35.735
34.839,35.742
34.839,35.749
34.837,35.756
34.834,35.763
34.83,35.769
34.824,35.775
34.818,35.78
34.812,35.785
34.805,35.788
34.798,35.792
34.791,35.794
34.784,35.795
34.777,35.796
34.772,35.796
34.767,35.794
34.764,35.79
34.763,35.785
34.765,35.778
34.77,35.77
34.78,35.76
34.794,35.749
34.814,35.736
34.842,35.723
34.877,35.708
34.922,35.693
34.976,35.678
35.042,35.662
35.118,35.647
35.206,35.632
35.303,35.618
35.408,35.604
35.52,35.591
35.635,35.578
35.752,35.564
35.868,35.551
35.98,35.537
36.087,35.523
36.185,35.509
36.274,35.494
36.352,35.479
36.417,35.464
36.47,35.451
36.511,35.438
36.539,35.428
36.555,35.418
36.559,35.41
36.551,35.404
36.531,35.399
36.501,35.395
36.461,35.393
36.413,35.392
36.359,35.391
36.299,35.391
36.235,35.392
36.17,35.392
36.104,35.392
36.038,35.391
35.975,35.389
35.913,35.386
35.856,35.382
35.802,35.376
35.752,35.37
35.707,35.363
35.665,35.355
35.628,35.348
35.595,35.341
35.567,35.334
35.541,35.327
35.519,35.32
35.5,35.314
35.483,35.308
35.468,35.302
35.454,35.296
35.441,35.292
35.427,35.289
35.413,35.288
35.397,35.288
35.379,35.289
35.361,35.29
35.341,35.293
35.321,35.294
35.301,35.296
35.281,35.297
35.261,35.298
35.243,35.3
35.228,35.301
35.215,35.302
35.206,35.303
35.2,35.304
35.198,35.304
35.199,35.302
35.205,35.3
35.213,35.296
35.226,35.291
35.241,35.285
35.259,35.279
35.28,35.272
35.303,35.265
35.328,35.258
35.354,35.251
35.381,35.244
35.409,35.237
35.435,35.231
35.46,35.224
35.483,35.217
35.504,35.212
35.522,35.206
35.536,35.202
35.547,35.197
35.553,35.193
35.554,35.189
35.551,35.184
35.545,35.18
35.535,35.174
35.522,35.169
35.507,35.164
35.49,35.16
35.473,35.155
35.454,35.151
35.435,35.146
35.416,35.141
35.396,35.136
35.377,35.13
35.359,35.124
35.341,35.118
35.323,35.112
35.305,35.106
35.286,35.101
35.267,35.095
35.249,35.09
35.23,35.085
35.211,35.081
35.193,35.078
35.174,35.075
35.157,35.074
35.139,35.075
35.122,35.078
35.106,35.085
35.091,35.097
35.077,35.113
35.065,35.136
35.055,35.165
35.047,35.202
35.04,35.247
35.035,35.301
35.032,35.364
35.029,35.435
35.028,35.514
35.028,35.599
35.028,35.689
35.03,35.783
35.032,35.878
35.034,35.973
35.035,36.065
35.036,36.153
35.036,36.235
35.035,36.31
35.033,36.377
35.03,36.434
35.026,36.482
35.021,36.52
35.015,36.547
35.01,36.564
35.006,36.571
35.003,36.569
35.001,36.559
35,36.541
35.001,36.516
35.002,36.486
35.003,36.452
35.004,36.415
35.004,36.376
35.004,36.336
35.003,36.295
35.002,36.255
35,36.216
34.997,36.178
34.993,36.143
34.988,36.109
34.983,36.079
34.978,36.051
34.973,36.026
34.969,36.003
34.964,35.984
34.961,35.966
34.958,35.951
34.956,35.937
34.955,35.925
34.955,35.915
34.955,35.906
34.955,35.898
34.954,35.89
34.953,35.882
34.952,35.875
34.95,35.867
34.947,35.858
34.944,35.848
34.941,35.836
34.939,35.823
34.938,35.808
34.939,35.792
34.945,35.775
34.954,35.756
34.971,35.737
34.995,35.719
35.028,35.701
35.072,35.685
35.127,35.671
35.193,35.658
35.27,35.648
35.357,35.64
35.454,35.634
35.559,35.631
35.67,35.63
35.785,35.633
35.902,35.638
36.017,35.647
36.129,35.658
36.235,35.671
36.333,35.687
36.42,35.706
36.495,35.725
36.558,35.745
36.606,35.766
36.64,35.786
36.66,35.805
36.666,35.823
36.66,35.839
36.642,35.852
36.614,35.863
36.577,35.871
36.533,35.876
36.482,35.878
36.427,35.877
36.369,35.874
36.309,35.869
36.249,35.863
36.19,35.855
36.133,35.846
36.08,35.835
36.029,35.823
35.981,35.81
35.937,35.796
35.896,35.781
35.859,35.765
35.825,35.748
35.794,35.731
35.767,35.714
35.743,35.697
35.722,35.679
35.703,35.661
35.686,35.643
35.671,35.625
35.656,35.606
35.642,35.587
35.627,35.568
35.611,35.548
35.594,35.53
35.576,35.512
35.557,35.495
35.536,35.48
35.515,35.467
35.493,35.455
35.471,35.445
35.451,35.437
35.432,35.43
35.415,35.424
35.402,35.42
35.392,35.416
35.385,35.413
35.382,35.41
35.383,35.407
35.389,35.404
35.398,35.399
35.411,35.394
35.427,35.388
35.445,35.381
35.466,35.373
35.488,35.365
35.511,35.358
35.534,35.351
35.557,35.344
35.579,35.337
35.6,35.331
35.619,35.326
35.637,35.321
35.653,35.317
35.667,35.313
35.679,35.31
35.689,35.308
35.697,35.307
35.703,35.306
35.707,35.305
35.708,35.305
35.708,35.304
35.705,35.304
35.701,35.304
35.695,35.304
35.687,35.304
35.676,35.305
35.662,35.305
35.646,35.305
35.628,35.306
35.607,35.306
35.584,35.307
35.558,35.309
35.531,35.31
35.503,35.312
35.476,35.315
35.448,35.318
35.421,35.322
35.395,35.326
35.37,35.329
35.347,35.332
35.326,35.335
35.307,35.337
35.29,35.338
35.275,35.338
35.261,35.336
35.25,35.334
35.24,35.331
35.231,35.327
35.225,35.322
35.22,35.317
35.217,35.311
35.214,35.305
35.212,35.297
35.209,35.289
35.206,35.28
35.202,35.271
35.198,35.261
35.193,35.251
35.188,35.241
35.182,35.232
35.176,35.223
35.17,35.214
35.164,35.207
35.158,35.199
35.153,35.193
35.148,35.187
35.143,35.181
35.138,35.175
35.133,35.17
35.128,35.165
35.123,35.16
35.117,35.157
35.111,35.156
35.104,35.156
35.097,35.16
35.09,35.167
35.083,35.18
35.075,35.199
35.069,35.225
35.062,35.26
35.057,35.303
35.052,35.357
35.049,35.419
35.046,35.491
35.044,35.571
35.043,35.658
35.042,35.749
35.042,35.844
35.043,35.939
35.044,36.033
35.045,36.124
35.046,36.21
35.047,36.289
35.046,36.36
35.045,36.421
35.043,36.472
35.039,36.512
35.034,36.541
35.027,36.559
35.018,36.568
35.008,36.566
34.997,36.556
34.986,36.537
34.974,36.512
34.963,36.482
34.952,36.447
34.942,36.409
34.933,36.368
34.926,36.326
34.922,36.284
34.922,36.242
34.926,36.202
34.937,36.165
34.955,36.131
34.981,36.1
35.017,36.071
35.065,36.044
35.124,36.019
35.195,35.997
35.278,35.977
35.371,35.96
35.473,35.944
35.583,35.929
35.697,35.915
35.815,35.901
35.932,35.888
36.047,35.874
36.157,35.861
36.26,35.847
36.353,35.833
36.435,35.818
36.504,35.803
36.559,35.788
36.601,35.773
36.628,35.757
36.641,35.74
36.641,35.724
36.63,35.708
36.607,35.692
36.575,35.676
36.535,35.662
36.487,35.649
36.434,35.637
36.376,35.627
36.316,35.618
36.253,35.61
36.19,35.605
36.127,35.602
36.065,35.601
36.006,35.604
35.95,35.609
35.897,35.618
35.848,35.63
35.804,35.644
35.764,35.66
35.729,35.678
35.698,35.698
35.671,35.717
35.647,35.735
35.627,35.753
35.609,35.768
35.594,35.781
35.579,35.793
35.566,35.802
35.552,35.808
35.537,35.813
35.522,35.815
35.506,35.815
35.488,35.813
35.47,35.81
35.45,35.806
35.431,35.8
35.411,35.794
35.393,35.787
35.375,35.779
35.36,35.77
35.346,35.759
35.334,35.748
35.325,35.736
35.319,35.723
35.317,35.708
35.319,35.693
35.325,35.678
35.335,35.661
35.349,35.644
35.367,35.627
35.388,35.61
35.412,35.594
35.437,35.578
35.464,35.563
35.492,35.548
35.519,35.534
35.545,35.52
35.57,35.506
35.593,35.493
35.614,35.48
35.632,35.468
35.646,35.457
35.657,35.446
35.664,35.437
35.667,35.428
35.667,35.421
35.664,35.414
35.658,35.408
35.65,35.403
35.639,35.399
35.626,35.395
35.612,35.392
35.596,35.388
35.58,35.386
35.563,35.383
35.547,35.38
35.531,35.378
35.514,35.375
35.497,35.372
35.48,35.369
35.462,35.367
35.444,35.364
35.425,35.361
35.405,35.358
35.385,35.354
35.363,35.349
35.341,35.343
35.318,35.336
35.295,35.329
35.272,35.321
35.25,35.313
35.23,35.305
35.211,35.297
35.193,35.29
35.176,35.283
35.161,35.276
35.148,35.27
35.136,35.264
35.126,35.258
35.117,35.253
35.11,35.249
35.105,35.246
35.101,35.244
35.097,35.242
35.095,35.242
35.092,35.242
35.091,35.242
35.089,35.243
35.087,35.245
35.084,35.246
35.08,35.248
35.076,35.249
35.073,35.249
35.069,35.249
35.067,35.247
35.064,35.245
35.063,35.242
35.062,35.239
35.062,35.236
35.063,35.232
35.064,35.228
35.066,35.223
35.068,35.219
35.069,35.214
35.069,35.208
35.068,35.203
35.067,35.196
35.064,35.189
35.059,35.181
35.054,35.173
35.047,35.164
35.039,35.155
35.031,35.146
35.023,35.138
35.015,35.13
35.008,35.124
35.003,35.118
34.999,35.115
34.996,35.112
34.994,35.111
34.993,35.112
34.993,35.114
34.993,35.116
34.993,35.118
34.993,35.119
34.992,35.121
34.99,35.121
34.988,35.121
34.985,35.119
34.981,35.117
34.976,35.114
34.97,35.11
34.963,35.107
34.956,35.105
34.948,35.104
34.939,35.105
34.93,35.11
34.921,35.119
34.913,35.134
34.905,35.155
34.898,35.183
34.892,35.22
34.888,35.266
34.885,35.321
34.885,35.386
34.889,35.461
34.898,35.543
34.912,35.631
34.935,35.726
34.967,35.824
35.009,35.923
35.062,36.022
35.128,36.119
35.206,36.21
35.296,36.294
35.398,36.37
35.509,36.437
35.629,36.492
35.755,36.537
35.884,36.57
36.014,36.592
36.141,36.604
36.262,36.605
36.375,36.596
36.477,36.578
36.566,36.552
36.643,36.518
36.705,36.48
36.752,36.437
36.785,36.392
36.802,36.346
36.806,36.3
36.796,36.255
36.774,36.212
36.742,36.171
36.7,36.134
36.651,36.099
36.595,36.069
36.534,36.042
36.47,36.019
36.402,36
36.333,35.984
36.263,35.971
36.193,35.961
36.125,35.954
36.058,35.949
35.995,35.946
35.935,35.945
35.88,35.945
35.829,35.945
35.784,35.946
35.743,35.946
35.707,35.946
35.675,35.945
35.648,35.943
35.624,35.939
35.603,35.933
35.585,35.925
35.568,35.915
35.552,35.902
35.536,35.888
35.519,35.871
35.501,35.853
35.483,35.835
35.465,35.817
35.445,35.8
35.426,35.785
35.408,35.771
35.391,35.759
35.376,35.749
35.364,35.743
35.354,35.739
35.348,35.738
35.346,35.739
35.348,35.742
35.353,35.747
35.363,35.753
35.377,35.761
35.394,35.769
35.414,35.779
35.437,35.788
35.462,35.797
35.489,35.806
35.518,35.815
35.548,35.824
35.578,35.833
35.607,35.841
35.635,35.849
35.662,35.855
35.687,35.859
35.709,35.861
35.729,35.861
35.745,35.859
35.758,35.854
35.768,35.847
35.774,35.839
35.776,35.828
35.775,35.816
35.77,35.803
35.761,35.79
35.749,35.776
35.734,35.761
35.715,35.745
35.695,35.729
35.672,35.713
35.648,35.695
35.622,35.678
35.595,35.659
35.567,35.64
35.54,35.621
35.514,35.602
35.488,35.584
35.465,35.566
35.444,35.549
35.425,35.534
35.407,35.52
35.392,35.508
35.377,35.498
35.363,35.489
35.349,35.482
35.335,35.476
35.321,35.472
35.307,35.469
35.292,35.467
35.275,35.466
35.259,35.465
35.242,35.465
35.225,35.464
35.209,35.464
35.195,35.463
35.182,35.463
35.17,35.462
35.16,35.46
35.152,35.459
35.146,35.456
35.141,35.453
35.138,35.45
35.134,35.445
35.13,35.441
35.127,35.435
35.123,35.43
35.12,35.424
35.116,35.418
35.112,35.412
35.108,35.407
35.104,35.402
35.101,35.397
35.096,35.392
35.092,35.387
35.087,35.382
35.082,35.377
35.077,35.371
35.072,35.366
35.068,35.36
35.064,35.355
35.06,35.349
35.058,35.344
35.058,35.338
35.058,35.333
35.06,35.328
35.063,35.324
35.066,35.321
35.069,35.318
35.072,35.316
35.075,35.313
35.077,35.311
35.077,35.309
35.077,35.306
35.075,35.303
35.071,35.3
35.066,35.296
35.06,35.292
35.054,35.287
35.047,35.283
35.04,35.279
35.033,35.274
35.027,35.27
35.02,35.265
35.013,35.259
35.006,35.253
34.999,35.246
34.993,35.239
34.988,35.23
34.984,35.222
34.981,35.213
34.977,35.204
34.974,35.194
34.971,35.184
34.967,35.174
34.963,35.164
34.957,35.154
34.95,35.145
34.942,35.137
34.934,35.13
34.926,35.124
34.918,35.12
34.91,35.116
34.903,35.114
34.897,35.112
34.893,35.11
34.892,35.109
34.897,35.107
34.907,35.105
34.927,35.103
34.956,35.1
34.998,35.097
35.052,35.093
35.12,35.089
35.202,35.084
35.297,35.079
35.404,35.074
35.52,35.069
35.644,35.064
35.774,35.059
35.906,35.055
36.036,35.053
36.163,35.052
36.283,35.054
36.393,35.058
36.493,35.067
36.58,35.08
36.653,35.1
36.711,35.128
36.755,35.163
36.784,35.208
36.799,35.261
36.801,35.323
36.791,35.394
36.771,35.471
36.742,35.555
36.704,35.644
36.66,35.737
36.61,35.83
36.556,35.924
36.499,36.016
36.441,36.104
36.382,36.187
36.325,36.261
36.269,36.326
36.215,36.381
36.163,36.423
36.115,36.453
36.07,36.471
36.029,36.476
35.991,36.471
35.958,36.455
35.927,36.431
35.9,36.4
35.877,36.364
35.856,36.323
35.839,36.279
35.824,36.233
35.811,36.188
35.799,36.143
35.788,36.1
35.776,36.059
35.763,36.021
35.749,35.985
35.734,35.953
35.718,35.925
35.699,35.901
35.68,35.881
35.66,35.864
35.639,35.852
35.618,35.842
35.597,35.834
35.578,35.828
35.561,35.822
35.545,35.817
35.532,35.812
35.522,35.807
35.516,35.801
35.513,35.795
35.513,35.788
35.518,35.779
35.526,35.77
35.538,35.759
35.552,35.747
35.57,35.734
35.59,35.72
35.611,35.705
35.635,35.688
35.659,35.671
35.684,35.655
35.708,35.639
35.73,35.624
35.752,35.61
35.771,35.597
35.788,35.587
35.802,35.578
35.813,35.571
35.821,35.566
35.825,35.562
35.826,35.561
35.824,35.56
35.819,35.561
35.811,35.563
35.8,35.565
35.786,35.569
35.77,35.575
35.752,35.581
35.732,35.589
35.712,35.597
35.691,35.607
35.669,35.616
35.647,35.626
35.625,35.635
35.602,35.644
35.579,35.652
35.556,35.659
35.533,35.665
35.51,35.668
35.487,35.67
35.464,35.669
35.441,35.666
35.419,35.662
35.399,35.655
35.38,35.647
35.362,35.637
35.347,35.625
35.333,35.612
35.321,35.596
35.311,35.579
35.302,35.561
35.294,35.541
35.288,35.522
35.283,35.502
35.279,35.482
35.276,35.463
35.274,35.444
35.272,35.425
35.271,35.406
35.271,35.388
35.27,35.37
35.269,35.353
35.268,35.336
35.265,35.321
35.261,35.305
35.256,35.291
35.251,35.277
35.245,35.264
35.238,35.252
35.232,35.242
35.226,35.234
35.221,35.227
35.215,35.221
35.209,35.217
35.204,35.214
35.2,35.211
35.196,35.208
35.193,35.205
35.191,35.201
35.189,35.195
35.188,35.188
35.186,35.179
35.184,35.169
35.182,35.158
35.178,35.147
35.174,35.135
35.169,35.122
35.164,35.11
35.158,35.098
35.152,35.087
35.145,35.077
35.137,35.069
35.129,35.062
35.12,35.057
35.11,35.054
35.101,35.052
35.092,35.052
35.083,35.053
35.076,35.054
35.069,35.057
35.063,35.061
35.057,35.064
35.053,35.067
35.049,35.07
35.047,35.073
35.044,35.075
35.042,35.076
35.039,35.077
35.036,35.078
35.032,35.077
35.027,35.076
35.022,35.074
35.017,35.07
35.011,35.066
35.006,35.061
35,35.056
34.996,35.051
34.993,35.046
34.992,35.04
34.993,35.033
34.998,35.028
35.009,35.022
35.025,35.017
35.05,35.013
35.083,35.01
35.126,35.008
35.18,35.006
35.245,35.004
35.321,35.003
35.407,35.001
35.503,35
35.606,34.998
35.716,34.996
35.83,34.993
35.946,34.99
36.062,34.987
36.176,34.983
36.286,34.978
36.39,34.972
36.485,34.966
36.57,34.959
36.643,34.952
36.703,34.946
36.751,34.939
36.784,34.932
36.804,34.926
36.81,34.919
36.803,34.913
36.785,34.906
36.757,34.9
36.719,34.894
36.674,34.887
36.622,34.881
36.566,34.876
36.505,34.871
36.443,34.866
36.38,34.863
36.316,34.859
36.254,34.856
36.194,34.854
36.137,34.852
36.084,34.851
36.035,34.851
35.991,34.852
35.95,34.853
35.914,34.854
35.883,34.855
35.856,34.855
35.834,34.855
35.817,34.854
35.803,34.852
35.793,34.849
35.784,34.845
35.776,34.842
35.768,34.838
35.759,34.837
35.748,34.837
35.734,34.842
35.718,34.85
35.698,34.865
35.676,34.885
35.651,34.913
35.625,34.949
35.597,34.994
35.57,35.048
35.543,35.112
35.519,35.184
35.497,35.265
35.479,35.352
35.466,35.444
35.458,35.538
35.454,35.634
35.456,35.727
35.462,35.818
35.473,35.903
35.488,35.982
35.505,36.053
35.525,36.114
35.547,36.165
35.569,36.204
35.591,36.233
35.614,36.25
35.636,36.258
35.657,36.256
35.677,36.245
35.696,36.227
35.713,36.201
35.728,36.17
35.741,36.133
35.751,36.093
35.759,36.051
35.765,36.008
35.768,35.965
35.768,35.923
35.765,35.882
35.758,35.845
35.749,35.81
35.736,35.779
35.72,35.75
35.703,35.724
35.683,35.7
35.662,35.678
35.64,35.657
35.617,35.639
35.592,35.622
35.566,35.606
35.541,35.592
35.515,35.58
35.49,35.57
35.466,35.561
35.442,35.554
35.419,35.548
35.397,35.544
35.376,35.539
35.357,35.536
35.339,35.532
35.323,35.527
35.31,35.522
35.298,35.516
35.289,35.509
35.282,35.501
35.275,35.492
35.27,35.482
35.266,35.471
35.261,35.459
35.256,35.448
35.251,35.437
35.244,35.426
35.237,35.416
35.228,35.406
35.218,35.397
35.208,35.389
35.196,35.382
35.185,35.376
35.173,35.372
35.162,35.372
35.151,35.374
35.142,35.379
35.133,35.387
35.125,35.398
35.119,35.411
35.115,35.425
35.112,35.441
35.109,35.457
35.108,35.473
35.106,35.489
35.106,35.503
35.105,35.516
35.104,35.527
35.104,35.535
35.103,35.541
35.101,35.544
35.1,35.543
35.098,35.54
35.096,35.534
35.094,35.526
35.093,35.516
35.091,35.505
35.089,35.494
35.088,35.483
35.086,35.471
35.084,35.458
35.082,35.444
35.08,35.429
35.078,35.413
35.075,35.397
35.073,35.38
35.07,35.363
35.066,35.345
35.062,35.327
35.056,35.309
35.05,35.292
35.043,35.275
35.036,35.258
35.029,35.241
35.022,35.225
35.014,35.211
35.005,35.198
34.995,35.186
34.984,35.176
34.972,35.168
34.959,35.161
34.947,35.155
34.934,35.151
34.922,35.148
34.91,35.145
34.9,35.143
34.892,35.14
34.886,35.137
34.883,35.134
34.884,35.131
34.89,35.129
34.903,35.127
34.923,35.125
34.952,35.123
34.991,35.122
35.042,35.12
35.104,35.118
35.178,35.115
35.263,35.112
35.358,35.109
35.461,35.105
35.573,35.1
35.689,35.095
35.807,35.089
35.926,35.083
36.043,35.077
36.155,35.072
36.26,35.069
36.356,35.067
36.442,35.067
36.515,35.068
36.575,35.071
36.621,35.075
36.652,35.079
36.669,35.083
36.672,35.086
36.662,35.088
36.639,35.09
36.606,35.091
36.563,35.091
36.512,35.091
36.454,35.09
36.392,35.089
36.326,35.087
36.259,35.085
36.192,35.082
36.126,35.079
36.062,35.075
36.002,35.071
35.945,35.066
35.891,35.061
35.842,35.054
35.799,35.047
35.76,35.04
35.725,35.032
35.695,35.024
35.668,35.016
35.645,35.009
35.625,35.003
35.607,34.998
35.591,34.993
35.576,34.99
35.561,34.987
35.546,34.984
35.53,34.982
35.512,34.979
35.492,34.976
35.471,34.973
35.447,34.969
35.421,34.966
35.394,34.962
35.366,34.959
35.339,34.956
35.314,34.953
35.291,34.95
35.271,34.948
35.256,34.946
35.245,34.945
35.239,34.944
35.238,34.944
35.242,34.943
35.25,34.942
35.262,34.939
35.28,34.936
35.301,34.932
35.325,34.928
35.353,34.922
35.383,34.917
35.415,34.911
35.447,34.907
35.48,34.902
35.512,34.899
35.544,34.896
35.573,34.893
35.601,34.89
35.625,34.887
35.646,34.884
35.664,34.881
35.68,34.877
35.692,34.873
35.701,34.869
35.707,34.866
35.709,34.863
35.709,34.859
35.705,34.856
35.699,34.853
35.689,34.849
35.676,34.844
35.661,34.84
35.643,34.835
35.623,34.832
35.602,34.83
35.579,34.832
35.555,34.837
35.531,34.847
35.506,34.864
35.48,34.889
35.453,34.923
35.425,34.967
35.397,35.021
35.37,35.085
35.343,35.16
35.317,35.243
35.293,35.334
35.269,35.43
35.247,35.531
35.226,35.632
35.206,35.733
35.187,35.83
35.17,35.923
35.153,36.009
35.137,36.087
35.121,36.155
35.107,36.213
35.094,36.258
35.082,36.291
35.071,36.313
35.061,36.323
35.052,36.323
35.044,36.313
35.037,36.294
35.031,36.268
35.026,36.235
35.022,36.197
35.018,36.155
35.015,36.111
35.011,36.066
35.007,36.02
35.003,35.977
34.998,35.935
34.994,35.895
34.99,35.859
34.987,35.826
34.985,35.796
34.983,35.77
34.982,35.746
34.982,35.726
34.982,35.709
34.983,35.695
34.985,35.684
34.988,35.676
34.991,35.67
34.994,35.666
34.998,35.663
35.003,35.661
35.008,35.66
35.012,35.658
35.016,35.657
35.019,35.655
35.02,35.652
35.02,35.649
35.019,35.644
35.017,35.638
35.014,35.63
35.011,35.621
35.007,35.61
35.002,35.598
34.996,35.584
34.989,35.569
34.982,35.553
34.975,35.538
34.967,35.523
34.959,35.51
34.95,35.499
34.941,35.489
34.932,35.482
34.923,35.477
34.914,35.474
34.905,35.474
34.898,35.476
34.891,35.48
34.885,35.485
34.88,35.491
34.879,35.497
34.88,35.504
34.885,35.51
34.896,35.517
34.914,35.522
34.939,35.528
34.975,35.534
35.022,35.539
35.08,35.545
35.15,35.551
35.233,35.556
35.328,35.562
35.433,35.567
35.545,35.571
35.662,35.574
35.782,35.577
35.903,35.579
36.021,35.579
36.135,35.578
36.242,35.575
36.339,35.57
36.426,35.563
36.501,35.554
36.563,35.543
36.612,35.529
36.647,35.514
36.668,35.498
36.676,35.481
36.67,35.464
36.651,35.446
36.622,35.429
36.582,35.412
36.534,35.395
36.48,35.38
36.422,35.366
36.361,35.353
36.298,35.341
36.236,35.33
36.175,35.321
36.117,35.312
36.062,35.304
36.011,35.296
35.964,35.288
35.922,35.279
35.885,35.271
35.853,35.263
35.825,35.256
35.801,35.248
35.78,35.241
35.762,35.233
35.746,35.225
35.731,35.217
35.717,35.208
35.702,35.2
35.687,35.192
35.671,35.184
35.654,35.177
35.635,35.17
35.614,35.165
35.591,35.16
35.566,35.157
35.54,35.154
35.512,35.153
35.485,35.151
35.458,35.151
35.432,35.15
35.408,35.15
35.386,35.149
35.368,35.149
35.353,35.148
35.342,35.147
35.335,35.146
35.332,35.145
35.333,35.143
35.339,35.141
35.349,35.139
35.361,35.137
35.376,35.135
35.393,35.132
35.412,35.129
35.431,35.127
35.45,35.124
35.47,35.121
35.489,35.118
35.508,35.114
35.527,35.11
35.545,35.106
35.562,35.101
35.577,35.095
35.592,35.09
35.604,35.085
35.615,35.081
35.623,35.078
35.627,35.076
35.629,35.074
35.628,35.072
35.623,35.071
35.616,35.07
35.605,35.069
35.592,35.068
35.576,35.067
35.558,35.066
35.536,35.064
35.513,35.063
35.488,35.061
35.462,35.06
35.435,35.058
35.408,35.055
35.381,35.052
35.355,35.048
35.331,35.045
35.308,35.041
35.286,35.038
35.266,35.036
35.248,35.033
35.231,35.03
35.215,35.026
35.2,35.022
35.184,35.018
35.169,35.013
35.154,35.008
35.139,35.002
35.125,34.996
35.11,34.99
35.095,34.983
35.081,34.976
35.068,34.97
35.055,34.964
35.043,34.958
35.032,34.954
35.021,34.95
35.012,34.948
35.003,34.946
34.995,34.945
34.989,34.945
34.984,34.945
34.98,34.945
34.977,34.945
34.976,34.944
34.976,34.943
34.977,34.94
34.978,34.937
34.98,34.932
34.981,34.927
34.983,34.922
34.984,34.916
34.983,34.911
34.982,34.906
34.98,34.902
34.978,34.899
34.975,34.898
34.972,34.898
34.969,34.902
34.965,34.909
34.962,34.92
34.958,34.935
34.955,34.957
34.953,34.985
34.952,35.022
34.951,35.067
34.952,35.121
34.952,35.184
34.953,35.256
34.953,35.335
34.954,35.421
34.954,35.511
34.955,35.603
34.955,35.697
34.955,35.788
34.954,35.876
34.952,35.958
34.951,36.033
34.949,36.101
34.946,36.159
34.944,36.206
34.942,36.244
34.939,36.27
34.936,36.286
34.932,36.292
34.928,36.287
34.923,36.274
34.919,36.253
34.915,36.226
34.911,36.194
34.908,36.158
34.907,36.119
34.907,36.079
34.909,36.039
34.915,35.999
34.925,35.959
34.941,35.921
34.963,35.885
34.995,35.852
35.037,35.822
35.09,35.795
35.155,35.771
35.233,35.75
35.323,35.732
35.424,35.716
35.534,35.703
35.651,35.692
35.772,35.684
35.897,35.677
36.02,35.672
36.141,35.668
36.256,35.666
36.363,35.663
36.459,35.662
36.543,35.66
36.612,35.657
36.667,35.654
36.707,35.651
36.731,35.645
36.742,35.639
36.739,35.631
36.723,35.62
36.696,35.608
36.66,35.595
36.616,35.579
36.565,35.563
36.509,35.547
36.449,35.531
36.387,35.517
36.325,35.504
36.263,35.494
36.204,35.485
36.147,35.479
36.094,35.474
36.045,35.471
36,35.469
35.96,35.468
35.925,35.469
35.894,35.471
35.867,35.475
35.844,35.48
35.823,35.486
35.805,35.494
35.789,35.504
35.775,35.514
35.762,35.526
35.749,35.539
35.736,35.551
35.722,35.564
35.708,35.576
35.691,35.587
35.673,35.596
35.653,35.603
35.631,35.608
35.607,35.611
35.583,35.612
35.559,35.609
35.534,35.604
35.51,35.596
35.487,35.587
35.466,35.575
35.448,35.562
35.433,35.547
35.421,35.532
35.413,35.517
35.409,35.502
35.408,35.487
35.411,35.472
35.417,35.458
35.427,35.445
35.44,35.432
35.456,35.419
35.474,35.407
35.493,35.394
35.514,35.381
35.537,35.368
35.56,35.355
35.583,35.342
35.605,35.328
35.627,35.315
35.648,35.303
35.666,35.291
35.683,35.28
35.696,35.27
35.707,35.26
35.715,35.252
35.719,35.244
35.72,35.237
35.717,35.231
35.71,35.224
35.7,35.217
35.686,35.21
35.669,35.203
35.649,35.197
35.626,35.19
35.602,35.184
35.577,35.177
35.553,35.171
35.528,35.165
35.504,35.159
35.481,35.153
35.459,35.148
35.439,35.143
35.42,35.138
35.402,35.133
35.386,35.129
35.37,35.124
35.356,35.12
35.341,35.117
35.327,35.114
35.312,35.113
35.298,35.111
35.283,35.111
35.269,35.11
35.256,35.11
35.243,35.11
35.232,35.11
35.221,35.109
35.211,35.107
35.202,35.105
35.193,35.103
35.185,35.1
35.178,35.096
35.171,35.092
35.166,35.087
35.16,35.082
35.155,35.075
35.15,35.068
35.145,35.06
35.14,35.052
35.134,35.044
35.127,35.036
35.12,35.03
35.111,35.024
35.101,35.02
35.091,35.017
35.081,35.015
35.07,35.015
35.059,35.015
35.05,35.016
35.041,35.018
35.034,35.02
35.028,35.022
35.023,35.024
35.02,35.026
35.017,35.029
35.015,35.032
35.014,35.036
35.013,35.039
35.011,35.043
35.01,35.046
35.008,35.049
35.006,35.052
35.002,35.053
34.998,35.053
34.994,35.051
34.99,35.048
34.985,35.043
34.98,35.036
34.974,35.028
34.969,35.018
34.964,35.008
34.959,34.997
34.953,34.986
34.947,34.975
34.942,34.964
34.936,34.954
34.929,34.943
34.922,34.932
34.915,34.922
34.907,34.913
34.899,34.905
34.891,34.898
34.883,34.893
34.876,34.888
34.87,34.884
34.867,34.882
34.866,34.881
34.869,34.881
34.876,34.881
34.889,34.882
34.908,34.883
34.935,34.884
34.971,34.884
35.017,34.884
35.074,34.884
35.141,34.883
35.219,34.882
35.306,34.882
35.402,34.882
35.504,34.883
35.613,34.888
35.725,34.897
35.837,34.911
35.947,34.932
36.053,34.961
36.152,34.999
36.242,35.046
36.321,35.104
36.388,35.17
36.443,35.246
36.485,35.33
36.514,35.419
36.531,35.513
36.536,35.608
36.529,35.704
36.512,35.797
36.487,35.886
36.453,35.969
36.414,36.045
36.369,36.112
36.32,36.17
36.268,36.218
36.215,36.256
36.161,36.283
36.108,36.3
36.055,36.307
36.004,36.304
35.955,36.291
35.908,36.27
35.865,36.243
35.824,36.209
35.787,36.171
35.752,36.13
35.721,36.086
35.694,36.041
35.669,35.997
35.647,35.953
35.629,35.911
35.613,35.87
35.6,35.832
35.587,35.797
35.575,35.765
35.564,35.737
35.551,35.712
35.538,35.69
35.524,35.671
35.509,35.656
35.493,35.643
35.476,35.633
35.458,35.626
35.44,35.623
35.421,35.621
35.403,35.621
35.385,35.623
35.368,35.624
35.353,35.625
35.34,35.625
35.331,35.624
35.325,35.62
35.322,35.614
35.324,35.606
35.329,35.595
35.339,35.582
35.352,35.568
35.368,35.552
35.387,35.535
35.409,35.517
35.434,35.499
35.459,35.482
35.485,35.466
35.509,35.451
35.533,35.438
35.554,35.428
35.573,35.42
35.588,35.416
35.6,35.414
35.608,35.415
35.614,35.418
35.616,35.423
35.615,35.431
35.612,35.441
35.607,35.452
35.601,35.465
35.593,35.479
35.583,35.494
35.572,35.51
35.558,35.525
35.543,35.54
35.525,35.554
35.506,35.566
35.484,35.576
35.462,35.584
35.439,35.59
35.415,35.594
35.391,35.594
35.367,35.593
35.343,35.59
35.321,35.584
35.301,35.577
35.282,35.567
35.263,35.555
35.246,35.542
35.23,35.528
35.216,35.512
35.203,35.494
35.192,35.473
35.182,35.452
35.173,35.428
35.165,35.404
35.158,35.379
35.15,35.354
35.142,35.33
35.133,35.306
35.124,35.284
35.115,35.264
35.106,35.247
35.098,35.233
35.09,35.222
35.082,35.214
35.076,35.208
35.07,35.203
35.064,35.199
35.059,35.196
35.053,35.193
35.048,35.19
35.044,35.187
35.04,35.184
35.036,35.18
35.032,35.175
35.028,35.171
35.024,35.166
35.02,35.161
35.017,35.156
35.014,35.15
35.011,35.144
35.008,35.138
35.006,35.131
35.003,35.125
35.001,35.12
34.998,35.114
34.994,35.11
34.99,35.107
34.986,35.104
34.982,35.103
34.978,35.103
34.974,35.103
34.971,35.104
34.968,35.105
34.965,35.107
34.962,35.108
34.959,35.11
34.957,35.111
34.954,35.113
34.952,35.114
34.95,35.115
34.947,35.115
34.945,35.114
34.942,35.113
34.939,35.112
34.936,35.11
34.932,35.108
34.928,35.106
34.924,35.104
34.919,35.102
34.914,35.099
34.908,35.097
34.903,35.094
34.897,35.091
34.892,35.088
34.886,35.084
34.88,35.08
34.876,35.075
34.872,35.07
34.869,35.065
34.869,35.059
34.871,35.053
34.876,35.048
34.886,35.042
34.901,35.038
34.922,35.033
34.951,35.029
34.99,35.025
35.04,35.022
35.102,35.018
35.175,35.014
35.261,35.011
35.357,35.008
35.462,35.005
35.574,35.003
35.69,35
35.809,34.997
35.927,34.995
36.041,34.993
36.149,34.99
36.249,34.988
36.338,34.985
36.415,34.982
36.478,34.978
36.528,34.974
36.562,34.969
36.582,34.964
36.586,34.959
36.578,34.953
36.557,34.947
36.526,34.94
36.486,34.934
36.439,34.927
36.387,34.921
36.33,34.916
36.271,34.911
36.212,34.907
36.154,34.905
36.098,34.903
36.045,34.903
35.994,34.903
35.948,34.904
35.905,34.905
35.865,34.907
35.829,34.91
35.797,34.913
35.768,34.918
35.742,34.924
35.719,34.933
35.697,34.944
35.677,34.96
35.658,34.98
35.639,35.007
35.621,35.041
35.603,35.082
35.584,35.132
35.566,35.19
35.547,35.257
35.528,35.332
35.507,35.414
35.485,35.502
35.462,35.593
35.439,35.685
35.414,35.776
35.391,35.865
35.368,35.949
35.348,36.025
35.33,36.093
35.316,36.15
35.305,36.196
35.298,36.231
35.294,36.255
35.293,36.269
35.295,36.273
35.3,36.268
35.308,36.255
35.319,36.236
35.332,36.211
35.348,36.181
35.366,36.147
35.385,36.11
35.406,36.071
35.427,36.03
35.449,35.988
35.471,35.947
35.492,35.906
35.512,35.867
35.531,35.831
35.548,35.796
35.563,35.764
35.575,35.736
35.585,35.71
35.593,35.688
35.599,35.669
35.601,35.653
35.6,35.641
35.597,35.63
35.591,35.621
35.583,35.613
35.572,35.607
35.559,35.601
35.544,35.596
35.527,35.591
35.509,35.586
35.489,35.582
35.468,35.577
35.446,35.573
35.423,35.568
35.399,35.562
35.375,35.556
35.35,35.548
35.326,35.54
35.302,35.531
35.278,35.521
35.255,35.512
35.232,35.502
35.21,35.492
35.188,35.483
35.167,35.475
35.147,35.467
35.128,35.461
35.111,35.456
35.097,35.452
35.084,35.451
35.074,35.451
35.066,35.454
35.06,35.458
35.057,35.465
35.054,35.473
35.053,35.482
35.053,35.493
35.054,35.504
35.055,35.515
35.055,35.527
35.055,35.539
35.055,35.55
35.054,35.561
35.052,35.571
35.048,35.579
35.042,35.587
35.035,35.592
35.026,35.596
35.016,35.599
35.006,35.6
34.996,35.599
34.986,35.596
34.978,35.592
34.971,35.585
34.966,35.576
34.963,35.565
34.961,35.552
34.96,35.536
34.961,35.519
34.963,35.501
34.964,35.482
34.966,35.463
34.968,35.443
34.97,35.424
34.971,35.403
34.972,35.382
34.974,35.36
34.976,35.337
34.978,35.314
34.98,35.292
34.98,35.271
34.98,35.252
34.98,35.234
34.978,35.218
34.977,35.204
34.976,35.193
34.975,35.183
34.973,35.175
34.971,35.167
34.969,35.16
34.965,35.153
34.96,35.147
34.954,35.142
34.947,35.137
34.938,35.132
34.928,35.127
34.917,35.123
34.904,35.119
34.892,35.116
34.879,35.113
34.866,35.11
34.854,35.107
34.843,35.104
34.833,35.102
34.826,35.101
34.823,35.099
34.823,35.097
34.828,35.096
34.838,35.093
34.856,35.091
34.882,35.088
34.919,35.085
34.966,35.083
35.026,35.08
35.098,35.079
35.181,35.077
35.276,35.076
35.38,35.075
35.492,35.073
35.61,35.071
35.732,35.068
35.855,35.065
35.978,35.062
36.097,35.059
36.209,35.057
36.313,35.056
36.406,35.056
36.486,35.056
36.554,35.057
36.607,35.058
36.647,35.059
36.673,35.06
36.686,35.061
36.686,35.061
36.675,35.061
36.654,35.061
36.624,35.061
36.585,35.06
36.541,35.058
36.49,35.054
36.436,35.05
36.378,35.044
36.32,35.038
36.263,35.03
36.208,35.022
36.155,35.013
36.107,35.005
36.062,34.997
36.021,34.989
35.984,34.982
35.951,34.976
35.921,34.972
35.895,34.969
35.871,34.967
35.849,34.965
35.829,34.964
35.809,34.964
35.791,34.963
35.772,34.961
35.754,34.96
35.736,34.957
35.717,34.955
35.697,34.952
35.675,34.948
35.652,34.945
35.628,34.941
35.603,34.936
35.576,34.93
35.548,34.923
35.521,34.916
35.495,34.908
35.471,34.899
35.45,34.89
35.433,34.881
35.419,34.873
35.409,34.866
35.404,34.86
35.401,34.855
35.402,34.851
35.405,34.848
35.411,34.846
35.42,34.846
35.432,34.848
35.446,34.852
35.461,34.86
35.478,34.873
35.496,34.892
35.515,34.918
35.535,34.951
35.555,34.994
35.575,35.045
35.595,35.106
35.614,35.175
35.632,35.253
35.65,35.338
35.666,35.429
35.68,35.525
35.693,35.622
35.703,35.72
35.711,35.817
35.717,35.909
35.718,35.997
35.716,36.077
35.71,36.148
35.699,36.21
35.685,36.262
35.668,36.303
35.648,36.333
35.625,36.352
35.6,36.36
35.574,36.359
35.548,36.348
35.522,36.329
35.497,36.303
35.473,36.272
35.451,36.237
35.431,36.198
35.413,36.157
35.397,36.115
35.382,36.074
35.368,36.035
35.355,35.998
35.343,35.964
35.33,35.933
35.317,35.906
35.304,35.883
35.29,35.863
35.276,35.847
35.263,35.834
35.249,35.824
35.235,35.817
35.221,35.812
35.209,35.808
35.197,35.805
35.187,35.803
35.178,35.8
35.169,35.798
35.16,35.795
35.152,35.791
35.144,35.787
35.136,35.782
35.129,35.775
35.121,35.768
35.114,35.759
35.107,35.748
35.1,35.736
35.092,35.724
35.084,35.71
35.076,35.696
35.068,35.682
35.06,35.667
35.053,35.653
35.046,35.639
35.039,35.627
35.034,35.615
35.029,35.605
35.024,35.596
35.019,35.588
35.015,35.582
35.01,35.577
35.006,35.573
35.002,35.572
34.997,35.571
34.992,35.572
34.988,35.575
34.983,35.579
34.978,35.584
34.973,35.591
34.969,35.598
34.965,35.607
34.961,35.616
34.958,35.626
34.955,35.636
34.952,35.646
34.949,35.655
34.946,35.664
34.942,35.672
34.938,35.678
34.933,35.683
34.929,35.686
34.923,35.687
34.917,35.686
34.91,35.683
34.902,35.679
34.893,35.673
34.883,35.666
34.874,35.657
34.864,35.646
34.855,35.634
34.847,35.621
34.839,35.607
34.832,35.593
34.826,35.577
34.822,35.561
34.821,35.545
34.824,35.528
34.833,35.511
34.849,35.495
34.873,35.479
34.906,35.463
34.95,35.449
35.005,35.437
35.072,35.425
35.151,35.414
35.241,35.404
35.342,35.394
35.452,35.385
35.568,35.377
35.69,35.369
35.815,35.362
35.94,35.355
36.063,35.35
36.18,35.344
36.29,35.34
36.391,35.336
36.481,35.332
36.557,35.328
36.621,35.324
36.671,35.319
36.707,35.315
36.729,35.31
36.738,35.305
36.733,35.3
36.716,35.295
36.688,35.29
36.649,35.286
36.603,35.283
36.549,35.281
36.491,35.279
36.429,35.278
36.366,35.276
36.302,35.275
36.241,35.273
36.183,35.271
36.128,35.268
36.079,35.266
36.035,35.262
35.997,35.259
35.965,35.255
35.938,35.25
35.916,35.246
35.899,35.241
35.885,35.237
