Trial 3:3back,Trial 5:3back
32.595,35.033
32.563,35.145
32.533,35.238
32.505,35.312
32.482,35.369
32.466,35.41
32.461,35.436
32.467,35.45
32.488,35.452
32.524,35.446
32.579,35.433
32.654,35.414
32.75,35.393
32.867,35.369
33.002,35.344
33.155,35.318
33.324,35.292
33.505,35.267
33.697,35.242
33.895,35.219
34.096,35.199
34.295,35.181
34.49,35.167
34.676,35.155
34.851,35.146
35.012,35.139
35.159,35.131
35.291,35.123
35.408,35.114
35.509,35.103
35.596,35.089
35.668,35.069
35.726,35.044
35.77,35.012
35.802,34.974
35.823,34.929
35.832,34.877
35.832,34.819
35.822,34.755
35.804,34.686
35.778,34.615
35.746,34.544
35.709,34.475
35.666,34.408
35.62,34.343
35.57,34.283
35.518,34.228
35.464,34.18
35.407,34.14
35.348,34.11
35.287,34.089
35.223,34.078
35.157,34.076
35.088,34.082
35.018,34.095
34.946,34.113
34.873,34.135
34.8,34.159
34.726,34.185
34.652,34.21
34.58,34.233
34.508,34.252
34.439,34.268
34.373,34.277
34.311,34.28
34.253,34.276
34.199,34.263
34.149,34.243
34.102,34.217
34.058,34.184
34.017,34.148
33.979,34.109
33.945,34.069
33.916,34.03
33.892,33.992
33.872,33.957
33.859,33.927
33.849,33.901
33.844,33.879
33.841,33.863
33.839,33.85
33.839,33.84
33.839,33.833
33.84,33.828
33.841,33.823
33.843,33.818
33.846,33.813
33.85,33.807
33.854,33.8
33.858,33.794
33.862,33.787
33.866,33.78
33.869,33.773
33.871,33.766
33.872,33.758
33.872,33.748
33.871,33.735
33.869,33.719
33.866,33.7
33.863,33.678
33.861,33.653
33.858,33.625
33.856,33.596
33.853,33.565
33.847,33.532
33.84,33.499
33.828,33.467
33.813,33.437
33.795,33.409
33.775,33.384
33.753,33.362
33.731,33.342
33.71,33.324
33.69,33.308
33.672,33.292
33.655,33.276
33.637,33.259
33.62,33.241
33.602,33.223
33.585,33.204
33.568,33.184
33.55,33.165
33.533,33.145
33.515,33.125
33.497,33.104
33.479,33.082
33.459,33.059
33.437,33.035
33.413,33.011
33.388,32.986
33.36,32.959
33.33,32.93
33.297,32.899
33.264,32.866
33.229,32.832
33.194,32.798
33.159,32.766
33.125,32.738
33.092,32.715
33.06,32.7
33.03,32.695
33.001,32.701
32.974,32.72
32.949,32.752
32.925,32.799
32.899,32.861
32.872,32.937
32.844,33.027
32.815,33.129
32.787,33.241
32.76,33.361
32.736,33.485
32.716,33.611
32.702,33.737
32.695,33.861
32.696,33.983
32.707,34.099
32.731,34.212
32.768,34.318
32.821,34.418
32.893,34.51
32.985,34.594
33.098,34.669
33.232,34.736
33.383,34.796
33.55,34.849
33.729,34.896
33.917,34.939
34.111,34.977
34.307,35.011
34.502,35.042
34.692,35.069
34.875,35.094
35.047,35.116
35.207,35.136
35.353,35.155
35.483,35.171
35.597,35.186
35.694,35.198
35.774,35.205
35.836,35.207
35.881,35.203
35.91,35.193
35.925,35.176
35.928,35.152
35.919,35.121
35.9,35.086
35.872,35.047
35.838,35.007
35.798,34.966
35.754,34.926
35.707,34.887
35.657,34.851
35.606,34.819
35.554,34.79
35.502,34.764
35.45,34.742
35.397,34.723
35.343,34.706
35.286,34.69
35.228,34.677
35.166,34.665
35.103,34.655
35.039,34.647
34.973,34.64
34.908,34.634
34.842,34.628
34.777,34.623
34.713,34.618
34.649,34.613
34.586,34.608
34.525,34.602
34.464,34.594
34.405,34.585
34.348,34.572
34.293,34.558
34.24,34.541
34.191,34.524
34.145,34.507
34.104,34.493
34.065,34.481
34.03,34.471
33.997,34.465
33.969,34.459
33.943,34.455
33.921,34.45
33.902,34.444
33.887,34.438
33.873,34.432
33.862,34.426
33.852,34.419
33.843,34.413
33.838,34.407
33.835,34.402
33.834,34.399
33.835,34.4
33.838,34.403
33.842,34.411
33.848,34.421
33.855,34.435
33.863,34.45
33.871,34.465
33.88,34.479
33.89,34.491
33.898,34.499
33.907,34.502
33.914,34.501
33.92,34.495
33.924,34.484
33.926,34.467
33.926,34.444
33.924,34.417
33.92,34.385
33.915,34.35
33.909,34.314
33.903,34.278
33.895,34.242
33.887,34.208
33.877,34.175
33.867,34.143
33.856,34.113
33.843,34.084
33.829,34.057
33.814,34.034
33.797,34.015
33.778,34
33.759,33.989
33.738,33.982
33.718,33.98
33.696,33.981
33.673,33.984
33.649,33.99
33.625,33.995
33.6,34.001
33.573,34.006
33.546,34.009
33.517,34.01
33.486,34.008
33.456,34.004
33.425,33.996
33.395,33.985
33.365,33.971
33.337,33.955
33.309,33.937
33.283,33.918
33.259,33.897
33.238,33.875
33.219,33.852
33.202,33.829
33.187,33.806
33.172,33.783
33.158,33.761
33.143,33.74
33.127,33.721
33.109,33.707
33.089,33.696
33.067,33.692
33.045,33.695
33.022,33.705
33,33.723
32.978,33.749
32.956,33.784
32.935,33.828
32.913,33.88
32.892,33.941
32.874,34.01
32.86,34.087
32.851,34.171
32.85,34.263
32.86,34.361
32.883,34.465
32.922,34.574
32.979,34.687
33.055,34.803
33.151,34.92
33.266,35.04
33.4,35.162
33.552,35.285
33.719,35.407
33.899,35.529
34.088,35.649
34.284,35.767
34.482,35.881
34.678,35.991
34.868,36.095
35.051,36.194
35.223,36.286
35.383,36.371
35.527,36.45
35.654,36.52
35.764,36.583
35.856,36.638
35.93,36.685
35.988,36.724
36.031,36.754
36.061,36.775
36.08,36.789
36.089,36.794
36.091,36.792
36.087,36.784
36.077,36.771
36.063,36.754
36.046,36.735
36.026,36.716
36.004,36.696
35.978,36.677
35.949,36.659
35.915,36.64
35.878,36.62
35.835,36.599
35.788,36.578
35.736,36.555
35.68,36.531
35.621,36.506
35.56,36.481
35.496,36.456
35.431,36.43
35.364,36.403
35.296,36.373
35.228,36.342
35.159,36.308
35.092,36.269
35.026,36.226
34.962,36.179
34.901,36.128
34.842,36.076
34.786,36.023
34.734,35.969
34.685,35.915
34.64,35.861
34.599,35.808
34.562,35.756
34.528,35.706
34.497,35.658
34.468,35.613
34.441,35.572
34.416,35.534
34.394,35.499
34.374,35.468
34.358,35.441
34.346,35.417
34.338,35.395
34.334,35.377
34.334,35.361
34.337,35.348
34.342,35.338
34.349,35.331
34.358,35.327
34.369,35.324
34.38,35.324
34.393,35.323
34.405,35.321
34.418,35.317
34.429,35.31
34.438,35.298
34.445,35.281
34.45,35.26
34.454,35.236
34.458,35.21
34.46,35.183
34.461,35.155
34.46,35.126
34.457,35.095
34.453,35.061
34.446,35.024
34.438,34.985
34.429,34.943
34.419,34.9
34.409,34.855
34.4,34.81
34.39,34.765
34.38,34.721
34.37,34.678
34.361,34.636
34.352,34.599
34.343,34.565
34.334,34.537
34.324,34.515
34.312,34.499
34.297,34.488
34.28,34.481
34.26,34.476
34.238,34.471
34.214,34.466
34.189,34.461
34.163,34.454
34.136,34.445
34.109,34.435
34.08,34.423
34.051,34.41
34.021,34.395
33.991,34.378
33.959,34.358
33.927,34.336
33.895,34.313
33.863,34.288
33.832,34.261
33.804,34.233
33.777,34.202
33.752,34.169
33.729,34.134
33.706,34.098
33.685,34.061
33.663,34.024
33.642,33.988
33.621,33.955
33.601,33.926
33.579,33.901
33.558,33.88
33.536,33.863
33.514,33.85
33.492,33.84
33.47,33.833
33.447,33.827
33.423,33.824
33.398,33.82
33.372,33.817
33.346,33.813
33.32,33.807
33.297,33.799
33.276,33.789
33.258,33.776
33.246,33.76
33.241,33.74
33.243,33.718
33.254,33.693
33.276,33.667
33.311,33.641
33.358,33.618
33.421,33.599
33.5,33.586
33.598,33.581
33.715,33.586
33.851,33.601
34.004,33.628
34.172,33.667
34.353,33.719
34.543,33.784
34.739,33.864
34.937,33.958
35.133,34.065
35.325,34.185
35.508,34.315
35.679,34.453
35.838,34.595
35.982,34.74
36.11,34.884
36.222,35.025
36.319,35.161
36.399,35.289
36.464,35.408
36.516,35.515
36.555,35.609
36.583,35.69
36.6,35.759
36.608,35.814
36.609,35.859
36.602,35.892
36.59,35.916
36.571,35.931
36.548,35.938
36.521,35.938
36.489,35.93
36.453,35.918
36.414,35.902
36.371,35.883
36.326,35.862
36.279,35.841
36.23,35.819
36.18,35.799
36.128,35.779
36.074,35.762
36.019,35.746
35.961,35.731
35.901,35.717
35.839,35.702
35.775,35.686
35.709,35.668
35.642,35.649
35.575,35.628
35.507,35.606
35.44,35.582
35.374,35.557
35.312,35.529
35.253,35.498
35.199,35.466
35.15,35.433
35.105,35.399
35.066,35.365
35.032,35.33
35.003,35.297
34.979,35.265
34.959,35.235
34.944,35.206
34.933,35.18
34.926,35.158
34.921,35.139
34.92,35.124
34.921,35.113
34.924,35.104
34.928,35.097
34.934,35.091
34.939,35.085
34.944,35.076
34.948,35.066
34.951,35.052
34.952,35.035
34.952,35.014
34.949,34.99
34.943,34.963
34.936,34.933
34.928,34.903
34.92,34.873
34.913,34.845
34.908,34.82
34.903,34.8
34.901,34.784
34.9,34.772
34.902,34.763
34.907,34.757
34.912,34.755
34.919,34.754
34.925,34.756
34.93,34.758
34.934,34.762
34.937,34.766
34.939,34.768
34.94,34.767
34.939,34.764
34.937,34.757
34.933,34.747
34.928,34.732
34.919,34.714
34.908,34.692
34.894,34.667
34.876,34.639
34.856,34.607
34.833,34.571
34.807,34.533
34.781,34.492
34.754,34.45
34.728,34.409
34.702,34.369
34.677,34.331
34.653,34.296
34.627,34.262
34.6,34.231
34.572,34.202
34.544,34.176
34.516,34.152
34.488,34.132
34.46,34.114
34.434,34.1
34.409,34.087
34.385,34.076
34.364,34.065
34.346,34.054
34.329,34.043
34.314,34.031
34.301,34.019
34.291,34.007
34.281,33.995
34.272,33.982
34.263,33.969
34.253,33.955
34.24,33.94
34.224,33.924
34.205,33.906
34.183,33.887
34.158,33.867
34.13,33.846
34.1,33.826
34.069,33.806
34.036,33.786
34.003,33.767
33.97,33.748
33.939,33.728
33.91,33.706
33.883,33.681
33.86,33.653
33.843,33.622
33.832,33.588
33.832,33.552
33.843,33.515
33.868,33.477
33.908,33.441
33.965,33.407
34.04,33.379
34.134,33.358
34.246,33.347
34.375,33.348
34.52,33.362
34.678,33.392
34.846,33.439
35.023,33.503
35.203,33.583
35.385,33.678
35.565,33.786
35.74,33.905
35.908,34.034
36.066,34.169
36.214,34.31
36.348,34.456
36.47,34.604
36.578,34.753
36.673,34.9
36.754,35.043
36.821,35.181
36.874,35.311
36.912,35.434
36.936,35.548
36.948,35.654
36.949,35.752
36.941,35.841
36.926,35.922
36.906,35.994
36.883,36.056
36.857,36.109
36.83,36.152
36.802,36.187
36.773,36.216
36.744,36.238
36.715,36.255
36.685,36.268
36.655,36.277
36.622,36.281
36.588,36.283
36.55,36.281
36.51,36.277
36.467,36.27
36.42,36.262
36.369,36.253
36.316,36.242
36.259,36.23
36.2,36.217
36.139,36.203
36.079,36.19
36.018,36.176
35.958,36.162
35.897,36.147
35.835,36.13
35.773,36.112
35.713,36.091
35.654,36.07
35.598,36.048
35.545,36.027
35.496,36.007
35.451,35.989
35.41,35.972
35.374,35.958
35.343,35.944
35.318,35.93
35.298,35.916
35.284,35.899
35.275,35.879
35.27,35.857
35.268,35.831
35.269,35.803
35.273,35.773
35.278,35.742
35.287,35.709
35.298,35.677
35.31,35.644
35.324,35.61
35.337,35.577
35.35,35.545
35.36,35.515
35.367,35.486
35.372,35.46
35.373,35.436
35.371,35.415
35.365,35.398
35.356,35.386
35.343,35.38
35.328,35.378
35.31,35.381
35.291,35.39
35.27,35.404
35.249,35.422
35.229,35.444
35.209,35.469
35.189,35.496
35.17,35.524
35.15,35.55
35.131,35.572
35.112,35.589
35.094,35.6
35.078,35.604
35.065,35.603
35.052,35.595
35.041,35.581
35.03,35.563
35.02,35.54
35.009,35.513
34.998,35.482
34.987,35.448
34.975,35.411
34.962,35.372
34.948,35.33
34.932,35.288
34.915,35.245
34.895,35.203
34.873,35.163
34.848,35.126
34.82,35.093
34.79,35.065
34.758,35.041
34.725,35.02
34.692,35.002
34.661,34.986
34.631,34.971
34.605,34.957
34.58,34.944
34.558,34.93
34.538,34.916
34.518,34.901
34.5,34.883
34.481,34.864
34.462,34.843
34.442,34.822
34.421,34.801
34.4,34.781
34.379,34.764
34.358,34.748
34.338,34.734
34.317,34.719
34.296,34.703
34.273,34.685
34.251,34.664
34.23,34.64
34.209,34.614
34.19,34.585
34.173,34.553
34.159,34.518
34.148,34.481
34.143,34.441
34.145,34.4
34.155,34.359
34.175,34.318
34.206,34.277
34.25,34.238
34.31,34.201
34.385,34.167
34.477,34.135
34.586,34.106
34.711,34.081
34.852,34.06
35.006,34.046
35.172,34.04
35.348,34.043
35.529,34.059
35.715,34.089
35.9,34.133
36.082,34.192
36.259,34.268
36.429,34.358
36.589,34.463
36.736,34.581
36.871,34.711
36.992,34.848
37.097,34.992
37.187,35.141
37.262,35.291
37.322,35.442
37.368,35.592
37.402,35.738
37.424,35.879
37.436,36.013
37.437,36.137
37.43,36.25
37.414,36.352
37.391,36.442
37.362,36.52
37.328,36.586
37.288,36.64
37.243,36.683
37.195,36.716
37.143,36.741
37.087,36.757
37.03,36.767
36.971,36.772
36.912,36.772
36.855,36.768
36.799,36.76
36.746,36.749
36.695,36.735
36.647,36.72
36.6,36.704
36.555,36.688
36.51,36.673
36.465,36.658
36.42,36.644
36.372,36.629
36.322,36.613
36.27,36.596
36.215,36.576
36.159,36.554
36.103,36.53
36.045,36.502
35.989,36.472
35.934,36.44
35.881,36.406
35.832,36.37
35.788,36.334
35.75,36.297
35.717,36.259
35.69,36.222
35.669,36.184
35.652,36.146
35.64,36.108
35.631,36.07
35.625,36.033
35.622,35.997
35.624,35.961
35.629,35.926
35.637,35.89
35.649,35.853
35.664,35.815
35.681,35.776
35.699,35.737
35.718,35.699
35.736,35.663
35.752,35.629
35.765,35.599
35.774,35.572
35.78,35.549
35.781,35.528
35.78,35.51
35.775,35.493
35.769,35.479
35.759,35.468
35.747,35.46
35.734,35.456
35.719,35.455
35.701,35.459
35.683,35.466
35.662,35.476
35.64,35.489
35.618,35.502
35.595,35.515
35.572,35.526
35.548,35.533
35.524,35.536
35.499,35.534
35.474,35.528
35.45,35.518
35.425,35.504
35.402,35.486
35.38,35.465
35.359,35.44
35.339,35.413
35.318,35.382
35.296,35.349
35.273,35.314
35.248,35.278
35.222,35.242
35.195,35.205
35.168,35.169
35.139,35.134
35.111,35.098
35.083,35.063
35.054,35.027
35.026,34.992
34.998,34.958
34.971,34.926
34.945,34.895
34.92,34.867
34.896,34.841
34.872,34.816
34.849,34.792
34.825,34.768
34.8,34.743
34.773,34.72
34.746,34.697
34.717,34.676
34.688,34.657
34.659,34.641
34.631,34.628
34.603,34.618
34.575,34.61
34.547,34.603
34.52,34.597
34.493,34.59
34.466,34.579
34.441,34.565
34.417,34.546
34.394,34.522
34.372,34.494
34.352,34.462
34.336,34.427
34.327,34.389
34.327,34.348
34.339,34.306
34.365,34.262
34.407,34.217
34.467,34.171
34.545,34.128
34.642,34.086
34.758,34.049
34.892,34.015
35.043,33.986
35.208,33.962
35.385,33.942
35.572,33.927
35.765,33.917
35.962,33.912
36.158,33.915
36.351,33.925
36.537,33.944
36.714,33.973
36.879,34.013
37.029,34.064
37.165,34.127
37.285,34.202
37.389,34.289
37.477,34.387
37.55,34.496
37.607,34.616
37.649,34.744
37.677,34.88
37.693,35.023
37.698,35.171
37.693,35.321
37.681,35.472
37.663,35.622
37.64,35.769
37.612,35.912
37.579,36.049
37.542,36.178
37.499,36.298
37.453,36.408
37.404,36.507
37.352,36.595
37.297,36.671
37.242,36.736
37.185,36.789
37.128,36.831
37.071,36.861
37.015,36.882
36.96,36.894
36.906,36.9
36.853,36.901
36.801,36.897
36.749,36.888
36.698,36.877
36.647,36.861
36.595,36.843
36.541,36.822
36.487,36.799
36.43,36.776
36.373,36.751
36.315,36.726
36.257,36.701
36.201,36.675
36.146,36.649
36.094,36.622
36.045,36.595
36.001,36.566
35.962,36.534
35.927,36.5
35.896,36.462
35.868,36.42
35.844,36.376
35.824,36.33
35.806,36.284
35.792,36.239
35.782,36.196
35.777,36.155
35.775,36.116
35.775,36.078
35.775,36.042
35.776,36.006
35.776,35.97
35.778,35.934
35.779,35.899
35.779,35.863
35.779,35.826
35.778,35.791
35.775,35.756
35.769,35.723
35.76,35.691
35.749,35.661
35.735,35.632
35.719,35.605
35.702,35.58
35.684,35.557
35.666,35.536
35.648,35.518
35.631,35.504
35.614,35.495
35.6,35.49
35.587,35.491
35.576,35.497
35.566,35.507
35.558,35.521
35.549,35.539
35.54,35.559
35.53,35.58
35.519,35.602
35.505,35.622
35.488,35.639
35.47,35.652
35.449,35.659
35.426,35.659
35.401,35.652
35.375,35.637
35.347,35.615
35.318,35.586
35.288,35.551
35.259,35.51
35.229,35.464
35.2,35.413
35.17,35.358
35.139,35.3
35.108,35.239
35.075,35.177
35.043,35.115
35.01,35.055
34.977,34.999
34.946,34.946
34.915,34.9
34.885,34.859
34.856,34.825
34.829,34.798
34.802,34.777
34.777,34.763
34.752,34.753
34.728,34.748
34.705,34.745
34.683,34.744
34.661,34.742
34.64,34.739
34.62,34.734
34.6,34.725
34.579,34.712
34.558,34.693
34.534,34.669
34.508,34.639
34.48,34.605
34.451,34.568
34.422,34.529
34.392,34.489
34.364,34.448
34.338,34.406
34.318,34.362
34.307,34.317
34.307,34.27
34.32,34.222
34.348,34.172
34.392,34.122
34.453,34.07
34.531,34.019
34.627,33.968
34.742,33.917
34.872,33.866
35.017,33.817
35.175,33.77
35.342,33.727
35.517,33.688
35.698,33.654
35.883,33.626
36.071,33.604
36.259,33.588
36.445,33.576
36.627,33.572
36.801,33.574
36.966,33.585
37.119,33.606
37.26,33.638
37.387,33.684
37.501,33.742
37.6,33.814
37.684,33.899
37.753,33.996
37.807,34.106
37.846,34.227
37.872,34.359
37.885,34.5
37.888,34.65
37.88,34.807
37.864,34.969
37.841,35.133
37.812,35.298
37.779,35.461
37.742,35.621
37.702,35.777
37.659,35.925
37.614,36.066
37.565,36.197
37.514,36.316
37.462,36.424
37.407,36.519
37.351,36.601
37.294,36.668
37.235,36.722
37.176,36.762
37.116,36.789
37.055,36.804
36.994,36.809
36.933,36.806
36.873,36.796
36.812,36.78
36.752,36.761
36.69,36.738
36.628,36.712
36.565,36.683
36.5,36.652
36.437,36.617
36.376,36.58
36.318,36.541
36.264,36.5
36.215,36.458
36.171,36.414
36.134,36.37
36.102,36.327
36.076,36.283
36.055,36.239
36.038,36.194
36.024,36.148
36.012,36.099
36.001,36.049
35.992,35.996
35.984,35.94
35.975,35.883
35.967,35.826
35.957,35.768
35.947,35.711
35.935,35.656
35.924,35.602
35.913,35.55
35.903,35.499
35.893,35.45
35.884,35.403
35.874,35.36
35.865,35.32
35.856,35.283
35.847,35.251
35.838,35.223
35.831,35.199
35.824,35.18
35.818,35.165
35.813,35.155
35.81,35.15
35.807,35.148
35.806,35.149
35.807,35.153
35.807,35.158
35.805,35.163
35.8,35.169
35.792,35.173
35.781,35.175
35.764,35.175
35.744,35.171
35.719,35.163
35.692,35.153
35.662,35.139
35.63,35.123
35.597,35.106
35.562,35.089
35.528,35.073
35.493,35.057
35.458,35.041
35.423,35.025
35.388,35.007
35.353,34.988
35.317,34.967
35.282,34.944
35.245,34.92
35.209,34.894
35.173,34.867
35.137,34.839
35.103,34.81
35.071,34.781
35.04,34.75
35.011,34.72
34.983,34.691
34.956,34.661
34.931,34.633
34.906,34.606
34.883,34.581
34.86,34.558
34.837,34.536
34.814,34.515
34.79,34.494
34.766,34.474
34.743,34.454
34.719,34.434
34.695,34.413
34.671,34.39
34.647,34.367
34.623,34.343
34.598,34.316
34.573,34.286
34.546,34.253
34.518,34.216
34.487,34.173
34.456,34.126
34.423,34.073
34.389,34.017
34.354,33.958
34.32,33.897
34.287,33.836
34.255,33.777
34.224,33.722
34.196,33.671
34.174,33.624
34.158,33.58
34.151,33.542
34.157,33.508
34.178,33.48
34.216,33.457
34.275,33.438
34.355,33.425
34.457,33.416
34.582,33.411
34.728,33.41
34.895,33.415
35.08,33.424
35.281,33.44
35.494,33.463
35.715,33.495
35.942,33.538
36.172,33.592
36.4,33.658
36.624,33.734
36.841,33.82
37.049,33.915
37.244,34.02
37.426,34.134
37.592,34.256
37.742,34.387
37.875,34.524
37.991,34.667
38.09,34.814
38.17,34.962
38.232,35.111
38.277,35.258
38.307,35.401
38.322,35.54
38.325,35.672
38.316,35.797
38.299,35.912
38.274,36.017
38.243,36.111
38.207,36.193
38.167,36.264
38.124,36.324
38.077,36.373
38.028,36.411
37.975,36.44
37.92,36.458
37.86,36.467
37.796,36.466
37.728,36.458
37.658,36.441
37.585,36.416
37.51,36.385
37.433,36.346
37.356,36.301
37.277,36.251
37.199,36.197
37.121,36.14
37.045,36.082
36.97,36.021
36.899,35.96
36.832,35.899
36.768,35.838
36.708,35.776
36.651,35.714
36.598,35.652
36.548,35.589
36.501,35.525
36.457,35.462
36.415,35.398
36.376,35.335
36.339,35.273
36.305,35.213
36.274,35.156
36.246,35.103
36.22,35.054
36.196,35.009
36.176,34.968
36.159,34.931
36.145,34.896
36.135,34.864
36.126,34.837
36.119,34.814
36.113,34.796
36.108,34.783
36.103,34.775
36.098,34.773
36.096,34.775
36.095,34.781
36.094,34.791
36.094,34.804
36.095,34.821
36.096,34.839
36.097,34.857
36.098,34.874
36.099,34.889
36.099,34.899
36.098,34.904
36.095,34.904
36.089,34.899
36.081,34.889
36.069,34.876
36.055,34.859
36.037,34.841
36.017,34.819
35.995,34.796
35.969,34.769
35.941,34.741
35.91,34.711
35.879,34.679
35.847,34.645
35.815,34.611
35.783,34.577
35.751,34.544
35.718,34.511
35.685,34.481
35.652,34.453
35.62,34.428
35.59,34.406
35.562,34.387
35.536,34.37
35.512,34.354
35.49,34.34
35.468,34.327
35.447,34.316
35.426,34.305
35.403,34.294
35.379,34.284
35.353,34.272
35.324,34.26
35.293,34.246
35.26,34.23
35.225,34.213
35.19,34.194
35.154,34.173
35.118,34.151
35.083,34.129
35.049,34.105
35.015,34.08
34.983,34.052
34.951,34.02
34.92,33.984
34.889,33.945
34.858,33.901
34.826,33.853
34.794,33.802
34.761,33.75
34.729,33.698
34.696,33.647
34.663,33.598
34.63,33.553
34.596,33.512
34.563,33.478
34.53,33.449
34.497,33.428
34.464,33.412
34.432,33.403
34.4,33.398
34.368,33.396
34.338,33.397
34.309,33.399
34.284,33.402
34.264,33.408
34.251,33.417
34.248,33.432
34.257,33.452
34.281,33.481
34.322,33.519
34.382,33.569
34.461,33.631
34.561,33.707
34.681,33.798
34.821,33.905
34.98,34.027
35.159,34.162
35.354,34.31
35.563,34.468
35.785,34.633
36.015,34.803
36.249,34.975
36.484,35.147
36.716,35.319
36.943,35.489
37.161,35.656
37.368,35.822
37.562,35.983
37.739,36.14
37.898,36.29
38.039,36.432
38.161,36.564
38.265,36.685
38.351,36.793
38.42,36.885
38.473,36.961
38.511,37.021
38.535,37.064
38.547,37.092
38.546,37.108
38.536,37.111
38.516,37.104
38.49,37.089
38.456,37.065
38.416,37.033
38.371,36.995
38.32,36.951
38.265,36.902
38.204,36.848
38.139,36.792
38.07,36.732
37.997,36.672
37.922,36.61
37.846,36.547
37.77,36.482
37.695,36.416
37.622,36.347
37.55,36.275
37.481,36.2
37.415,36.123
37.35,36.044
37.287,35.964
37.224,35.885
37.162,35.809
37.1,35.735
37.036,35.665
36.97,35.599
36.902,35.535
36.832,35.476
36.762,35.42
36.692,35.368
36.622,35.322
36.555,35.282
36.491,35.248
36.433,35.22
36.38,35.197
36.335,35.18
36.297,35.167
36.266,35.157
36.241,35.15
36.221,35.146
36.206,35.145
36.195,35.147
36.188,35.152
36.182,35.16
36.178,35.169
36.175,35.178
36.173,35.186
36.172,35.192
36.172,35.196
36.171,35.197
36.17,35.195
36.168,35.191
36.164,35.184
36.16,35.175
36.155,35.163
36.149,35.151
36.143,35.136
36.135,35.12
36.127,35.102
36.118,35.083
36.107,35.061
36.094,35.038
36.08,35.014
36.064,34.991
36.048,34.968
36.03,34.946
36.009,34.927
35.987,34.911
35.963,34.898
35.937,34.888
35.911,34.881
35.883,34.876
35.854,34.872
35.822,34.868
35.787,34.865
35.75,34.862
35.711,34.86
35.671,34.858
35.631,34.855
35.591,34.85
35.551,34.844
35.512,34.835
35.474,34.824
35.438,34.81
35.402,34.794
35.367,34.774
35.333,34.75
35.298,34.721
35.263,34.688
35.227,34.649
35.191,34.606
35.154,34.558
35.117,34.506
35.077,34.45
35.036,34.392
34.993,34.334
34.949,34.276
34.904,34.221
34.859,34.169
34.814,34.12
34.769,34.074
34.724,34.033
34.68,33.995
34.636,33.962
34.594,33.933
34.554,33.909
34.516,33.889
34.48,33.874
34.446,33.863
34.415,33.856
34.385,33.853
34.356,33.855
34.328,33.861
34.301,33.873
34.272,33.891
34.242,33.916
34.209,33.949
34.175,33.993
34.14,34.047
34.104,34.112
34.069,34.188
34.036,34.276
34.006,34.376
33.982,34.488
33.967,34.612
33.962,34.749
33.972,34.898
33.998,35.059
34.042,35.23
34.106,35.41
34.193,35.595
34.302,35.785
34.435,35.974
34.592,36.161
34.774,36.342
34.978,36.514
35.201,36.677
35.441,36.828
35.693,36.966
35.954,37.091
36.219,37.204
36.485,37.304
36.746,37.392
36.998,37.468
37.238,37.532
37.463,37.582
37.669,37.619
37.855,37.644
38.018,37.657
38.159,37.659
38.278,37.651
38.375,37.634
38.451,37.61
38.507,37.58
38.544,37.545
38.565,37.508
38.57,37.469
38.562,37.43
38.543,37.389
38.513,37.348
38.473,37.306
38.424,37.264
38.368,37.222
38.305,37.181
38.238,37.139
38.165,37.097
38.091,37.054
38.014,37.011
37.936,36.966
37.857,36.92
37.778,36.871
37.699,36.819
37.62,36.765
37.542,36.708
37.465,36.65
37.39,36.591
37.316,36.532
37.242,36.475
37.169,36.419
37.095,36.367
37.022,36.318
36.948,36.272
36.874,36.229
36.8,36.191
36.724,36.156
36.648,36.124
36.573,36.096
36.499,36.071
36.428,36.051
36.361,36.036
36.298,36.024
36.24,36.017
36.186,36.012
36.137,36.01
36.092,36.008
36.052,36.007
36.017,36.005
35.986,36.001
35.959,35.997
35.936,35.991
35.916,35.984
35.898,35.974
35.882,35.963
35.868,35.95
35.856,35.936
35.845,35.922
35.836,35.908
35.828,35.895
35.821,35.883
35.814,35.873
35.807,35.865
35.802,35.858
35.797,35.851
35.794,35.844
35.79,35.834
35.786,35.822
35.779,35.808
35.77,35.791
35.758,35.772
35.744,35.751
35.728,35.729
35.712,35.707
35.694,35.683
35.675,35.659
35.654,35.632
35.632,35.604
35.609,35.572
35.583,35.537
35.556,35.498
35.526,35.456
35.495,35.411
35.462,35.364
35.429,35.316
35.395,35.267
35.362,35.217
35.329,35.166
35.295,35.114
35.258,35.06
35.219,35.004
35.178,34.947
35.134,34.891
35.091,34.835
35.047,34.781
35.004,34.729
34.962,34.68
34.921,34.635
34.882,34.594
34.846,34.558
34.811,34.527
34.779,34.501
34.748,34.481
34.718,34.465
34.689,34.455
34.661,34.448
34.631,34.445
34.6,34.444
34.566,34.446
34.529,34.448
34.489,34.451
34.448,34.457
34.406,34.467
34.363,34.484
34.321,34.511
34.281,34.551
34.242,34.606
34.204,34.678
34.168,34.768
34.132,34.876
34.097,35.001
34.062,35.142
34.026,35.297
33.991,35.464
33.956,35.641
33.92,35.827
33.885,36.02
33.849,36.218
33.815,36.417
33.781,36.616
33.748,36.81
33.716,36.998
33.684,37.176
33.652,37.341
33.621,37.493
33.591,37.63
33.562,37.75
33.535,37.855
33.512,37.945
33.494,38.021
33.485,38.083
33.487,38.131
33.502,38.167
33.534,38.188
33.586,38.197
33.658,38.193
33.754,38.178
33.874,38.154
34.019,38.12
34.188,38.08
34.38,38.034
34.591,37.984
34.821,37.931
35.064,37.876
35.317,37.818
35.575,37.758
35.834,37.697
36.09,37.633
36.339,37.566
36.578,37.499
36.803,37.43
37.013,37.361
37.207,37.293
37.383,37.226
37.54,37.16
37.678,37.097
37.796,37.037
37.896,36.979
37.977,36.925
38.041,36.875
38.089,36.828
38.121,36.785
38.137,36.745
38.138,36.708
38.126,36.675
38.101,36.644
38.065,36.615
38.019,36.589
37.965,36.565
37.902,36.541
37.834,36.519
37.761,36.496
37.683,36.472
37.6,36.447
37.515,36.422
37.425,36.397
37.333,36.374
37.239,36.354
37.143,36.337
37.047,36.325
36.95,36.318
36.855,36.315
36.762,36.316
36.671,36.319
36.583,36.325
36.498,36.331
36.418,36.337
36.342,36.343
36.269,36.348
36.2,36.352
36.134,36.353
36.071,36.353
36.01,36.35
35.952,36.344
35.895,36.334
35.839,36.319
35.783,36.3
35.728,36.277
35.674,36.25
35.623,36.221
35.574,36.19
35.529,36.159
35.489,36.129
35.452,36.102
35.42,36.076
35.391,36.052
35.365,36.029
35.344,36.008
35.327,35.986
35.315,35.963
35.305,35.94
35.299,35.916
35.294,35.891
35.292,35.864
35.292,35.836
35.293,35.806
35.295,35.776
35.298,35.745
35.301,35.713
35.303,35.68
35.306,35.647
35.309,35.613
35.31,35.578
35.31,35.54
35.308,35.501
35.304,35.461
35.298,35.42
35.288,35.378
35.276,35.335
35.26,35.291
35.243,35.246
35.223,35.202
35.203,35.158
35.182,35.115
35.161,35.073
35.139,35.031
35.118,34.99
35.095,34.947
35.07,34.905
35.042,34.863
35.011,34.822
34.976,34.785
34.939,34.752
34.899,34.728
34.857,34.715
34.814,34.716
34.769,34.733
34.724,34.768
34.679,34.824
34.634,34.901
34.59,35.002
34.547,35.125
34.505,35.272
34.464,35.44
34.424,35.628
34.386,35.832
34.349,36.051
34.314,36.279
34.279,36.514
34.246,36.753
34.214,36.992
34.183,37.226
34.152,37.451
34.121,37.665
34.091,37.864
34.061,38.047
34.031,38.211
33.999,38.357
33.967,38.484
33.934,38.592
33.9,38.681
33.866,38.754
33.832,38.811
33.798,38.853
33.762,38.881
33.726,38.896
33.689,38.899
33.65,38.891
33.612,38.873
33.573,38.846
33.535,38.812
33.498,38.771
33.461,38.725
33.426,38.675
33.393,38.621
33.362,38.565
33.333,38.505
33.305,38.443
33.28,38.377
33.256,38.309
33.233,38.239
33.213,38.166
33.195,38.091
33.182,38.016
33.174,37.94
33.173,37.864
33.182,37.79
33.202,37.718
33.237,37.647
33.289,37.578
33.359,37.511
33.449,37.445
33.561,37.38
33.693,37.316
33.848,37.254
34.024,37.193
34.22,37.134
34.432,37.077
34.659,37.022
34.895,36.967
35.138,36.913
35.383,36.859
35.628,36.806
35.869,36.752
36.104,36.7
36.328,36.649
36.539,36.601
36.734,36.557
36.911,36.519
37.07,36.487
37.211,36.464
37.333,36.449
37.437,36.442
37.522,36.441
37.588,36.446
37.636,36.454
37.667,36.464
37.682,36.474
37.681,36.484
37.667,36.494
37.641,36.502
37.604,36.51
37.557,36.516
37.502,36.521
37.44,36.525
37.374,36.527
37.304,36.528
37.232,36.526
37.158,36.521
37.083,36.513
37.005,36.501
36.927,36.486
36.847,36.469
36.767,36.452
36.686,36.433
36.607,36.415
36.527,36.396
36.448,36.377
36.37,36.357
36.293,36.336
36.218,36.314
36.143,36.29
36.07,36.264
36,36.237
35.931,36.208
35.865,36.177
35.799,36.144
35.735,36.109
35.673,36.073
35.613,36.036
35.556,35.998
35.503,35.957
35.455,35.915
35.411,35.869
35.371,35.819
35.334,35.766
35.3,35.71
35.269,35.653
35.241,35.595
35.214,35.535
35.19,35.476
35.168,35.416
35.149,35.357
35.133,35.297
35.12,35.236
35.109,35.176
35.102,35.117
35.097,35.059
35.095,35.004
35.096,34.952
35.099,34.903
35.105,34.859
35.112,34.821
35.119,34.792
35.125,34.773
35.13,34.766
35.134,34.776
35.135,34.803
35.135,34.851
35.134,34.92
35.131,35.011
35.126,35.124
35.119,35.256
35.11,35.408
35.1,35.576
35.088,35.761
35.074,35.958
35.058,36.168
35.04,36.389
35.021,36.618
34.998,36.853
34.972,37.093
34.944,37.333
34.914,37.571
34.881,37.804
34.848,38.029
34.814,38.242
34.78,38.441
34.746,38.625
34.714,38.792
34.683,38.942
34.653,39.075
34.624,39.19
34.595,39.287
34.565,39.365
34.535,39.426
34.502,39.47
34.468,39.497
34.433,39.509
34.397,39.506
34.361,39.491
34.325,39.463
34.292,39.423
34.261,39.374
34.233,39.315
34.207,39.249
34.182,39.177
34.159,39.101
34.137,39.023
34.115,38.944
34.094,38.867
34.074,38.791
34.053,38.719
34.033,38.649
34.014,38.582
33.994,38.516
33.973,38.452
33.952,38.387
33.929,38.32
33.903,38.251
33.876,38.179
33.845,38.105
33.812,38.03
33.776,37.955
33.738,37.879
33.699,37.804
33.659,37.73
33.618,37.655
33.576,37.582
33.534,37.508
33.492,37.436
33.451,37.366
33.41,37.297
33.371,37.232
33.335,37.17
33.302,37.113
33.275,37.06
33.255,37.014
33.245,36.974
33.246,36.939
33.259,36.908
33.287,36.882
33.331,36.858
33.394,36.836
33.477,36.816
33.582,36.799
33.709,36.785
33.859,36.774
34.031,36.767
34.223,36.763
34.434,36.762
34.659,36.764
34.896,36.767
35.141,36.773
35.39,36.779
35.639,36.784
35.884,36.789
36.123,36.792
36.351,36.793
36.568,36.793
36.769,36.793
36.954,36.793
37.12,36.792
37.267,36.79
37.394,36.785
37.501,36.776
37.589,36.763
37.658,36.745
37.708,36.723
37.742,36.696
37.76,36.665
37.764,36.631
37.755,36.594
37.735,36.554
37.706,36.511
37.67,36.466
37.629,36.42
37.584,36.372
37.535,36.324
37.484,36.275
37.431,36.226
37.374,36.178
37.315,36.13
37.253,36.083
37.188,36.036
37.119,35.991
37.047,35.946
36.972,35.901
36.895,35.855
36.815,35.807
36.734,35.757
36.649,35.704
36.564,35.649
36.476,35.591
36.388,35.53
36.3,35.466
36.214,35.4
36.129,35.331
36.047,35.26
35.97,35.188
35.896,35.116
35.828,35.046
35.763,34.979
35.704,34.915
35.649,34.856
35.598,34.802
35.551,34.754
35.508,34.71
35.47,34.671
35.434,34.636
35.401,34.608
35.371,34.587
35.344,34.575
35.321,34.575
35.299,34.588
35.28,34.618
35.26,34.665
35.241,34.734
35.221,34.824
35.203,34.939
35.185,35.078
35.17,35.24
35.158,35.424
35.148,35.628
35.141,35.85
35.135,36.087
35.13,36.339
35.128,36.602
35.127,36.872
35.129,37.146
35.132,37.421
35.137,37.692
35.142,37.956
35.148,38.208
35.153,38.447
35.156,38.67
35.157,38.874
35.154,39.059
35.148,39.225
35.139,39.37
35.128,39.496
35.114,39.603
35.097,39.693
35.078,39.766
35.057,39.823
35.033,39.866
35.005,39.895
34.973,39.912
34.939,39.918
34.902,39.914
34.863,39.901
34.823,39.881
34.782,39.853
34.742,39.82
34.702,39.781
34.663,39.737
34.625,39.688
34.587,39.636
34.548,39.58
34.51,39.521
34.471,39.462
34.432,39.403
34.392,39.346
34.353,39.29
34.315,39.235
34.277,39.179
34.239,39.121
34.201,39.06
34.163,38.996
34.126,38.928
34.088,38.858
34.051,38.784
34.013,38.709
33.976,38.634
33.939,38.559
33.903,38.485
33.866,38.413
33.83,38.343
33.793,38.274
33.757,38.207
33.721,38.14
33.685,38.075
33.649,38.012
33.614,37.952
33.579,37.896
33.543,37.845
33.507,37.798
33.471,37.756
33.434,37.718
33.398,37.683
33.361,37.65
33.325,37.62
33.29,37.59
33.256,37.561
33.225,37.533
33.199,37.506
33.178,37.48
33.167,37.457
33.167,37.438
33.182,37.422
33.214,37.409
33.265,37.399
33.338,37.391
33.433,37.384
33.553,37.376
33.697,37.366
33.863,37.356
34.052,37.343
34.262,37.329
34.491,37.314
34.736,37.298
34.995,37.281
35.264,37.261
35.539,37.24
35.815,37.215
36.09,37.188
36.358,37.156
36.615,37.121
36.857,37.082
37.081,37.04
37.284,36.994
37.464,36.946
37.619,36.895
37.749,36.844
37.853,36.791
37.933,36.737
37.99,36.68
38.027,36.621
38.045,36.56
38.046,36.495
38.034,36.427
38.01,36.355
37.976,36.281
37.934,36.206
37.884,36.13
37.829,36.053
37.769,35.978
37.706,35.903
37.64,35.829
37.571,35.757
37.499,35.686
37.425,35.618
37.347,35.553
37.265,35.49
37.181,35.431
37.093,35.374
37.004,35.32
36.914,35.268
36.825,35.217
36.737,35.168
36.648,35.12
36.561,35.074
36.474,35.03
36.388,34.989
36.303,34.95
36.221,34.913
36.14,34.878
36.063,34.844
35.989,34.812
35.919,34.777
35.852,34.741
35.788,34.702
35.728,34.66
35.671,34.615
35.618,34.567
35.568,34.515
35.522,34.46
35.48,34.403
35.441,34.345
35.406,34.285
35.374,34.226
35.345,34.167
35.317,34.111
35.294,34.057
35.273,34.008
35.255,33.965
35.24,33.928
35.228,33.901
35.218,33.883
35.212,33.877
35.209,33.883
35.209,33.904
35.213,33.942
35.219,34.001
35.228,34.084
35.236,34.192
35.244,34.327
35.251,34.488
35.257,34.675
35.26,34.888
35.262,35.122
35.261,35.377
35.258,35.648
35.253,35.933
35.245,36.228
35.234,36.528
35.221,36.831
35.205,37.132
35.188,37.427
35.168,37.715
35.146,37.99
35.121,38.249
35.095,38.488
35.067,38.705
35.038,38.897
35.007,39.063
34.975,39.205
34.941,39.321
34.907,39.414
34.873,39.485
34.84,39.535
34.807,39.567
34.776,39.582
34.744,39.582
34.712,39.57
34.68,39.547
34.647,39.515
34.612,39.474
34.577,39.427
34.541,39.374
34.505,39.316
34.468,39.256
34.43,39.194
34.394,39.132
34.359,39.068
34.325,39.004
34.292,38.939
34.26,38.872
34.229,38.805
34.197,38.736
34.164,38.666
34.131,38.594
34.097,38.52
34.062,38.446
34.028,38.37
33.995,38.295
33.962,38.221
33.93,38.148
33.899,38.075
33.868,38.002
33.836,37.93
33.802,37.859
33.766,37.788
33.729,37.718
33.691,37.65
33.653,37.585
33.614,37.523
33.577,37.464
33.54,37.408
33.504,37.355
33.47,37.306
33.437,37.259
33.407,37.214
33.378,37.172
33.351,37.133
33.326,37.096
33.303,37.062
33.284,37.031
33.271,37.003
33.266,36.978
33.272,36.956
33.291,36.938
33.326,36.923
33.38,36.911
33.455,36.898
33.552,36.886
33.675,36.873
33.824,36.859
33.998,36.844
34.199,36.828
34.422,36.812
34.666,36.795
34.928,36.777
35.205,36.757
35.492,36.735
35.786,36.711
36.08,36.683
36.372,36.653
36.656,36.619
36.931,36.581
37.192,36.54
37.438,36.496
37.667,36.449
37.875,36.401
38.064,36.351
38.23,36.301
38.374,36.251
38.495,36.201
38.591,36.151
38.663,36.1
38.712,36.049
38.738,35.999
38.743,35.951
38.728,35.903
38.695,35.858
38.645,35.814
38.582,35.772
38.508,35.731
38.425,35.693
38.336,35.655
38.243,35.617
38.147,35.58
38.05,35.543
37.954,35.505
37.858,35.466
37.765,35.427
37.674,35.386
37.586,35.343
37.502,35.297
37.421,35.249
37.341,35.199
37.263,35.147
37.186,35.093
37.109,35.038
37.033,34.982
36.957,34.925
36.881,34.867
36.804,34.808
36.727,34.748
36.65,34.688
36.573,34.627
36.497,34.564
36.421,34.5
36.348,34.433
36.276,34.365
36.208,34.296
36.142,34.229
36.079,34.165
36.02,34.105
35.964,34.049
35.911,33.998
35.862,33.952
35.816,33.911
35.774,33.873
35.736,33.838
35.702,33.805
35.673,33.773
35.65,33.743
35.631,33.714
35.616,33.684
35.605,33.654
35.597,33.623
35.59,33.589
35.585,33.554
35.58,33.52
35.575,33.487
35.569,33.458
35.563,33.436
35.555,33.421
35.547,33.417
35.538,33.426
35.529,33.449
35.52,33.487
35.51,33.545
35.5,33.622
35.488,33.722
35.476,33.846
35.464,33.993
35.451,34.165
35.438,34.36
35.424,34.576
35.408,34.812
35.391,35.066
35.371,35.333
35.349,35.61
35.326,35.893
35.3,36.179
35.274,36.463
35.248,36.742
35.221,37.013
35.193,37.273
35.164,37.519
35.134,37.748
35.103,37.96
35.071,38.151
35.039,38.322
35.005,38.47
34.969,38.596
34.933,38.699
34.895,38.778
34.856,38.835
34.817,38.87
34.777,38.887
34.738,38.886
34.698,38.869
34.66,38.841
34.622,38.801
34.584,38.753
34.547,38.697
34.509,38.634
34.47,38.567
34.431,38.496
34.392,38.424
34.351,38.351
34.31,38.277
34.268,38.204
34.227,38.131
34.188,38.058
34.148,37.986
34.109,37.915
34.07,37.845
34.032,37.775
33.995,37.706
33.958,37.637
33.92,37.568
33.883,37.497
33.845,37.427
33.806,37.357
33.766,37.288
33.727,37.219
33.689,37.151
33.652,37.084
33.615,37.017
33.58,36.95
33.543,36.881
33.506,36.812
33.469,36.741
33.431,36.669
33.394,36.596
33.359,36.522
33.327,36.45
33.3,36.38
33.282,36.313
33.276,36.252
33.285,36.196
33.312,36.146
33.36,36.103
33.431,36.066
33.527,36.035
33.648,36.01
33.796,35.989
33.968,35.971
34.165,35.956
34.384,35.942
34.622,35.929
34.876,35.915
35.143,35.9
35.419,35.884
35.698,35.866
35.977,35.848
36.25,35.83
36.512,35.811
36.761,35.793
36.991,35.775
37.201,35.757
37.388,35.739
37.551,35.719
37.689,35.699
37.803,35.678
37.892,35.656
37.958,35.633
38.002,35.608
38.026,35.582
38.032,35.554
38.023,35.522
38,35.487
37.965,35.449
37.92,35.408
37.867,35.365
37.806,35.318
37.74,35.268
37.669,35.214
37.594,35.157
37.514,35.096
37.431,35.032
37.344,34.964
37.254,34.894
37.159,34.822
37.062,34.749
36.963,34.676
36.862,34.606
36.762,34.538
36.661,34.474
36.561,34.416
36.462,34.363
36.365,34.315
36.271,34.272
36.179,34.233
36.091,34.196
36.006,34.162
35.923,34.129
35.843,34.098
35.764,34.069
35.688,34.041
35.613,34.013
35.541,33.986
35.471,33.958
35.404,33.927
35.339,33.894
35.276,33.857
35.218,33.817
35.164,33.772
35.116,33.724
35.074,33.672
35.037,33.616
35.006,33.558
34.98,33.498
34.958,33.437
34.94,33.375
34.925,33.313
34.913,33.254
34.902,33.199
34.893,33.149
34.886,33.104
34.881,33.065
34.879,33.032
34.88,33.003
34.882,32.98
34.887,32.96
34.892,32.942
34.896,32.926
34.9,32.91
34.904,32.894
34.906,32.876
34.907,32.856
34.905,32.832
34.901,32.805
34.894,32.776
34.885,32.748
34.874,32.723
34.86,32.705
34.844,32.699
34.827,32.707
34.807,32.732
34.785,32.778
34.76,32.845
34.734,32.936
34.705,33.051
34.675,33.19
34.644,33.353
34.61,33.539
34.574,33.748
34.536,33.976
34.496,34.221
34.455,34.479
34.413,34.747
34.371,35.021
34.331,35.296
34.292,35.568
34.253,35.833
34.215,36.087
34.177,36.326
34.14,36.548
34.103,36.751
34.066,36.932
34.03,37.091
33.995,37.228
33.96,37.341
33.926,37.431
33.892,37.499
33.858,37.547
33.824,37.577
33.79,37.59
33.754,37.589
33.716,37.575
33.677,37.55
33.635,37.516
33.593,37.476
33.549,37.429
33.504,37.379
33.459,37.325
33.413,37.269
33.368,37.21
33.323,37.149
33.279,37.086
33.235,37.021
33.191,36.954
33.149,36.885
33.107,36.814
33.067,36.74
33.027,36.665
32.987,36.586
32.946,36.506
32.906,36.423
32.866,36.34
32.826,36.256
32.789,36.173
32.754,36.091
32.722,36.01
32.695,35.931
32.673,35.854
32.659,35.779
32.654,35.707
32.661,35.637
32.682,35.57
32.718,35.507
32.772,35.449
32.844,35.396
32.936,35.349
33.048,35.308
33.183,35.273
33.339,35.242
33.518,35.216
33.717,35.194
33.934,35.176
34.166,35.159
34.411,35.145
34.663,35.131
34.92,35.116
35.176,35.101
35.427,35.083
35.67,35.063
35.903,35.042
36.121,35.019
36.323,34.994
36.507,34.967
36.673,34.939
36.818,34.91
36.944,34.88
37.049,34.849
37.134,34.816
37.201,34.783
37.25,34.747
37.284,34.709
37.302,34.67
37.307,34.629
37.299,34.588
37.279,34.548
37.248,34.509
37.208,34.471
37.16,34.436
37.105,34.401
37.046,34.367
36.983,34.332
36.917,34.296
36.849,34.258
36.779,34.219
36.706,34.179
36.629,34.139
36.55,34.099
36.469,34.06
36.386,34.021
36.3,33.983
36.213,33.945
36.123,33.908
36.03,33.871
35.936,33.835
35.841,33.8
35.745,33.765
35.652,33.73
35.561,33.692
35.473,33.652
35.387,33.608
35.305,33.56
35.227,33.505
35.154,33.446
35.085,33.382
35.02,33.315
34.959,33.247
34.903,33.18
34.852,33.114
34.805,33.049
34.763,32.987
34.726,32.927
34.692,32.87
34.663,32.818
34.637,32.769
34.615,32.725
34.597,32.685
34.582,32.649
34.57,32.615
34.561,32.583
34.556,32.552
34.553,32.52
34.554,32.486
34.557,32.45
34.563,32.412
34.569,32.372
34.575,32.331
34.581,32.288
34.586,32.243
34.59,32.199
34.595,32.154
34.601,32.109
34.607,32.066
34.614,32.026
34.62,31.989
34.624,31.955
34.627,31.924
34.626,31.897
34.623,31.873
34.616,31.851
34.607,31.831
34.595,31.814
34.58,31.797
34.563,31.784
34.544,31.773
34.522,31.766
34.498,31.764
34.472,31.767
34.443,31.777
34.411,31.795
34.376,31.822
34.338,31.861
34.297,31.915
34.254,31.986
34.209,32.076
34.164,32.188
34.118,32.321
34.072,32.475
34.027,32.65
33.984,32.844
33.942,33.057
33.903,33.285
33.865,33.525
33.828,33.775
33.792,34.031
33.757,34.289
33.722,34.545
33.687,34.795
33.652,35.035
33.617,35.262
33.581,35.472
33.544,35.664
33.506,35.836
33.467,35.985
33.428,36.113
33.391,36.218
33.354,36.303
33.318,36.368
33.282,36.417
33.247,36.45
33.212,36.469
33.176,36.475
33.139,36.469
33.101,36.453
33.063,36.428
33.025,36.396
32.987,36.358
32.951,36.316
32.918,36.27
32.89,36.221
32.868,36.169
32.855,36.116
32.852,36.06
32.86,36.004
32.883,35.947
32.923,35.89
32.983,35.833
33.063,35.778
33.165,35.725
33.29,35.673
33.437,35.622
33.607,35.574
33.797,35.527
34.007,35.483
34.231,35.442
34.467,35.403
34.711,35.368
34.958,35.334
35.204,35.302
35.446,35.271
35.682,35.241
35.908,35.21
36.12,35.177
36.316,35.143
36.496,35.107
36.656,35.071
36.797,35.034
36.919,34.999
37.021,34.967
37.103,34.938
37.165,34.913
37.21,34.892
37.235,34.873
37.243,34.856
37.234,34.84
37.21,34.823
37.173,34.807
37.125,34.791
37.068,34.775
37.003,34.76
36.931,34.744
36.854,34.728
36.772,34.711
36.688,34.693
36.602,34.674
36.517,34.655
36.432,34.639
36.348,34.626
36.265,34.618
36.184,34.614
36.103,34.615
36.024,34.62
35.946,34.628
35.868,34.636
35.789,34.644
35.71,34.651
35.63,34.658
35.547,34.662
35.462,34.666
35.376,34.668
35.289,34.667
35.202,34.664
35.114,34.656
35.028,34.643
34.945,34.625
34.864,34.6
34.786,34.57
34.713,34.532
34.644,34.489
34.58,34.439
34.523,34.384
34.471,34.324
34.427,34.26
34.39,34.192
34.359,34.123
34.336,34.053
34.318,33.985
34.306,33.921
34.298,33.86
34.295,33.806
34.297,33.758
34.302,33.716
34.311,33.68
34.322,33.649
34.334,33.621
34.346,33.596
34.357,33.572
34.367,33.549
34.376,33.525
34.383,33.501
34.39,33.474
34.395,33.446
34.398,33.414
34.399,33.38
34.397,33.343
34.395,33.302
34.39,33.257
34.383,33.21
34.373,33.159
34.36,33.106
34.346,33.051
34.329,32.995
34.31,32.938
34.29,32.882
34.269,32.826
34.249,32.771
34.228,32.72
34.207,32.673
34.186,32.631
34.164,32.595
34.142,32.566
34.12,32.543
34.096,32.526
34.07,32.514
34.043,32.506
34.015,32.5
33.984,32.496
33.952,32.492
33.919,32.487
33.884,32.48
33.848,32.47
33.811,32.456
33.774,32.438
33.736,32.414
33.699,32.385
33.662,32.352
33.625,32.315
33.587,32.279
33.549,32.243
33.51,32.213
33.471,32.192
33.433,32.181
33.396,32.185
33.358,32.205
33.32,32.244
33.281,32.305
33.242,32.388
33.202,32.496
33.162,32.63
33.121,32.788
33.08,32.97
33.038,33.175
32.996,33.4
32.954,33.642
32.911,33.898
32.872,34.163
32.836,34.433
32.807,34.705
32.786,34.975
32.775,35.24
32.778,35.497
32.797,35.742
32.833,35.973
32.888,36.186
32.965,36.38
33.065,36.553
33.189,36.706
33.339,36.839
33.513,36.952
33.712,37.046
33.934,37.122
34.176,37.18
34.433,37.222
34.703,37.248
34.98,37.259
35.26,37.257
35.539,37.241
35.813,37.213
36.077,37.175
36.327,37.13
36.562,37.078
36.777,37.023
36.973,36.966
37.149,36.91
37.303,36.855
37.437,36.802
37.55,36.75
37.643,36.699
37.717,36.65
37.774,36.602
37.813,36.556
37.836,36.511
37.845,36.469
37.84,36.427
37.824,36.386
37.797,36.344
37.76,36.302
37.714,36.257
37.661,36.212
37.599,36.163
37.532,36.113
37.457,36.06
37.377,36.005
37.291,35.949
37.201,35.894
37.109,35.84
37.015,35.789
36.92,35.741
36.827,35.697
36.736,35.657
36.648,35.619
36.562,35.585
36.478,35.553
36.396,35.523
36.316,35.495
36.238,35.467
36.16,35.439
36.082,35.41
36.004,35.38
35.924,35.349
35.844,35.318
35.763,35.286
35.683,35.255
35.604,35.225
35.528,35.196
35.454,35.168
35.384,35.142
35.318,35.118
35.257,35.095
35.199,35.073
35.145,35.053
35.096,35.033
35.05,35.014
35.008,34.996
34.969,34.979
34.935,34.964
34.905,34.951
34.879,34.94
34.859,34.93
34.843,34.921
34.832,34.911
34.824,34.901
34.82,34.89
34.819,34.876
34.821,34.861
34.824,34.844
34.83,34.824
34.836,34.802
34.843,34.779
34.851,34.754
34.857,34.726
34.86,34.694
34.861,34.659
34.859,34.619
34.853,34.576
34.843,34.53
34.831,34.481
34.815,34.431
34.797,34.38
34.777,34.329
34.754,34.277
34.728,34.224
34.7,34.169
34.671,34.113
34.639,34.055
34.607,33.998
34.574,33.941
34.541,33.886
34.508,33.833
34.478,33.782
34.448,33.732
34.419,33.684
34.391,33.637
34.364,33.593
34.337,33.55
34.309,33.509
34.282,33.471
34.253,33.435
34.223,33.401
34.192,33.37
34.16,33.34
34.126,33.312
34.092,33.285
34.056,33.257
34.02,33.229
33.982,33.201
33.943,33.172
33.903,33.143
33.863,33.112
33.822,33.078
33.781,33.042
33.739,33.001
33.697,32.956
33.653,32.906
33.609,32.851
33.564,32.792
33.518,32.732
33.473,32.672
33.428,32.613
33.385,32.557
33.343,32.506
33.301,32.46
33.261,32.42
33.221,32.386
33.183,32.358
33.147,32.336
33.112,32.319
33.08,32.306
33.051,32.294
33.026,32.282
33.006,32.269
32.994,32.255
32.991,32.241
33.001,32.229
33.026,32.22
33.068,32.216
33.13,32.222
33.213,32.239
33.322,32.271
33.456,32.321
33.615,32.391
33.799,32.482
34.007,32.596
34.237,32.734
34.489,32.896
34.758,33.082
35.043,33.29
35.338,33.518
35.638,33.762
35.941,34.018
36.239,34.282
36.531,34.552
36.811,34.823
37.077,35.092
37.325,35.356
37.554,35.612
37.762,35.858
37.947,36.093
38.109,36.314
38.245,36.519
38.357,36.708
38.446,36.876
38.511,37.025
38.555,37.152
38.578,37.259
38.583,37.347
38.57,37.416
38.543,37.468
38.503,37.505
38.454,37.53
38.397,37.544
38.333,37.547
38.264,37.54
38.191,37.524
38.114,37.498
38.035,37.464
37.954,37.423
37.869,37.374
37.784,37.32
37.697,37.26
37.609,37.197
37.52,37.132
37.431,37.067
37.342,37
37.252,36.933
37.162,36.864
37.071,36.795
36.981,36.725
36.891,36.653
36.802,36.582
36.715,36.512
36.627,36.442
36.539,36.374
36.45,36.306
36.361,36.239
36.272,36.172
36.186,36.104
36.102,36.035
36.021,35.966
35.945,35.895
35.874,35.824
35.809,35.754
35.75,35.685
35.696,35.618
35.649,35.555
35.608,35.497
35.574,35.445
35.545,35.398
35.522,35.358
35.503,35.323
35.488,35.296
35.476,35.275
35.467,35.26
35.458,35.252
35.45,35.25
35.441,35.254
35.432,35.262
35.424,35.275
35.415,35.29
35.408,35.306
35.401,35.323
35.395,35.339
35.39,35.353
35.386,35.366
35.38,35.375
35.374,35.382
35.367,35.385
35.359,35.383
35.351,35.376
35.342,35.366
35.332,35.351
35.32,35.332
35.306,35.311
35.291,35.285
35.272,35.256
35.251,35.224
35.227,35.188
35.201,35.149
35.173,35.107
35.144,35.062
35.114,35.013
35.084,34.962
35.052,34.91
35.019,34.856
34.985,34.801
34.948,34.748
34.909,34.696
34.87,34.647
34.83,34.601
34.791,34.557
34.751,34.515
34.711,34.476
34.671,34.437
34.631,34.4
34.591,34.364
34.552,34.329
34.513,34.294
34.474,34.26
34.435,34.226
34.396,34.192
34.356,34.157
34.316,34.121
34.277,34.083
34.238,34.043
34.2,34.002
34.162,33.961
34.124,33.92
34.086,33.879
34.049,33.84
34.012,33.799
33.976,33.758
33.941,33.714
33.906,33.667
33.871,33.618
33.835,33.565
33.798,33.512
33.76,33.458
33.72,33.405
33.678,33.356
33.636,33.309
33.593,33.266
33.55,33.226
33.507,33.187
33.466,33.152
33.426,33.118
33.388,33.087
33.351,33.058
33.314,33.032
33.278,33.006
33.244,32.981
33.213,32.955
33.187,32.929
33.171,32.902
33.166,32.876
33.177,32.85
33.206,32.826
33.258,32.802
33.337,32.78
33.445,32.758
33.585,32.735
33.758,32.71
33.964,32.683
34.201,32.653
34.466,32.623
34.757,32.594
35.067,32.569
35.394,32.549
35.729,32.539
36.068,32.541
36.404,32.56
36.732,32.597
37.046,32.656
37.342,32.741
37.618,32.852
37.871,32.99
38.099,33.156
38.303,33.347
38.481,33.563
38.633,33.8
38.759,34.054
38.861,34.324
38.94,34.604
38.997,34.891
39.035,35.179
39.055,35.465
39.057,35.745
39.044,36.015
39.015,36.271
38.973,36.512
38.92,36.735
38.857,36.939
38.784,37.122
38.705,37.282
38.62,37.421
38.531,37.537
38.439,37.633
38.345,37.707
38.25,37.763
38.155,37.8
38.059,37.821
37.965,37.827
37.87,37.82
37.776,37.802
37.682,37.774
37.588,37.737
37.494,37.694
37.401,37.643
37.308,37.587
37.216,37.526
37.124,37.461
37.032,37.393
36.94,37.324
36.848,37.254
36.756,37.182
36.665,37.109
36.575,37.035
36.487,36.96
36.401,36.884
36.319,36.808
36.24,36.731
36.166,36.652
36.096,36.573
36.032,36.493
35.975,36.412
35.924,36.331
35.88,36.25
35.841,36.17
35.807,36.09
35.779,36.013
35.755,35.936
35.735,35.86
35.717,35.785
35.702,35.711
35.689,35.639
35.677,35.571
35.667,35.508
35.658,35.451
35.65,35.401
35.645,35.358
35.641,35.321
35.637,35.291
35.634,35.267
35.63,35.248
35.624,35.234
35.616,35.224
35.606,35.22
35.595,35.22
35.581,35.223
35.565,35.23
35.546,35.241
35.523,35.253
35.498,35.267
35.469,35.283
35.437,35.298
35.405,35.312
35.372,35.325
35.341,35.334
35.31,35.34
35.281,35.34
35.251,35.336
35.221,35.326
35.192,35.311
35.163,35.29
35.132,35.264
35.101,35.234
35.069,35.201
35.036,35.165
35.001,35.127
34.965,35.088
34.928,35.048
34.891,35.007
34.853,34.964
34.814,34.921
34.774,34.878
34.732,34.834
34.689,34.792
34.646,34.752
34.603,34.714
34.56,34.68
34.517,34.648
34.474,34.619
34.43,34.591
34.387,34.564
34.343,34.537
34.299,34.507
34.256,34.476
34.213,34.442
34.171,34.404
34.131,34.365
34.092,34.324
34.055,34.281
34.017,34.238
33.98,34.195
33.942,34.151
33.9,34.106
33.857,34.059
33.812,34.01
33.765,33.959
33.719,33.905
33.674,33.848
33.629,33.789
33.585,33.728
33.541,33.664
33.498,33.599
33.455,33.531
33.413,33.463
33.373,33.394
33.333,33.328
33.295,33.264
33.257,33.206
33.219,33.152
33.181,33.105
33.146,33.063
33.113,33.026
33.083,32.994
33.056,32.967
33.035,32.943
33.019,32.921
33.011,32.901
33.013,32.881
33.03,32.861
33.064,32.84
33.119,32.817
33.198,32.79
33.306,32.76
33.442,32.726
33.609,32.69
33.808,32.653
34.036,32.616
34.292,32.583
34.572,32.556
34.873,32.536
35.19,32.528
35.519,32.536
35.855,32.561
36.192,32.607
36.524,32.675
36.847,32.768
37.155,32.886
37.444,33.031
37.711,33.2
37.954,33.395
38.171,33.614
38.36,33.852
38.522,34.108
38.658,34.378
38.767,34.657
38.851,34.941
38.91,35.226
38.947,35.507
38.962,35.779
38.957,36.038
38.935,36.279
38.895,36.502
38.84,36.704
38.771,36.885
38.689,37.044
38.595,37.183
38.493,37.302
38.385,37.402
38.271,37.484
38.153,37.549
38.034,37.598
37.915,37.632
37.798,37.653
37.684,37.66
37.574,37.656
37.47,37.64
37.372,37.614
37.281,37.579
37.194,37.537
37.112,37.488
37.032,37.434
36.952,37.377
36.872,37.316
36.791,37.254
36.709,37.19
36.625,37.125
36.541,37.059
36.455,36.991
36.367,36.923
36.279,36.853
36.19,36.782
36.101,36.71
36.014,36.638
35.931,36.565
35.853,36.491
35.78,36.416
35.714,36.339
35.655,36.261
35.603,36.181
35.557,36.099
35.519,36.018
35.487,35.937
35.46,35.858
35.438,35.782
35.42,35.71
35.406,35.64
35.395,35.573
35.387,35.508
35.381,35.446
35.376,35.387
35.373,35.332
35.369,35.283
35.366,35.241
35.364,35.206
35.361,35.178
35.359,35.158
35.358,35.144
35.356,35.136
35.355,35.133
35.353,35.134
35.35,35.138
35.347,35.143
35.342,35.15
35.335,35.158
35.327,35.166
35.318,35.176
35.307,35.186
35.295,35.196
35.28,35.206
35.264,35.215
35.244,35.222
35.222,35.227
35.197,35.229
35.17,35.227
35.141,35.221
35.11,35.214
35.077,35.204
35.043,35.192
35.007,35.178
34.971,35.161
34.932,35.14
34.893,35.116
34.851,35.088
34.807,35.057
34.762,35.023
34.716,34.985
34.67,34.945
34.624,34.903
34.579,34.857
34.534,34.808
34.491,34.755
34.448,34.7
34.406,34.643
34.366,34.585
34.326,34.527
34.287,34.47
34.248,34.414
34.209,34.359
34.169,34.306
34.13,34.254
34.09,34.204
34.049,34.157
34.008,34.111
33.966,34.067
33.922,34.025
33.878,33.984
33.834,33.944
33.791,33.905
33.749,33.866
33.707,33.829
33.666,33.791
33.625,33.755
33.583,33.717
33.54,33.68
33.496,33.641
33.451,33.6
33.405,33.557
33.358,33.511
33.313,33.462
33.269,33.409
33.228,33.354
33.189,33.297
33.154,33.238
33.12,33.177
33.088,33.116
33.057,33.056
33.026,32.997
32.996,32.94
32.967,32.885
32.94,32.834
32.915,32.786
32.895,32.742
32.883,32.701
32.881,32.664
32.893,32.629
32.92,32.596
32.967,32.565
33.034,32.535
33.123,32.505
33.237,32.475
33.377,32.446
33.543,32.416
33.736,32.389
33.954,32.364
34.196,32.345
34.46,32.334
34.742,32.332
35.038,32.343
35.345,32.369
35.659,32.413
35.974,32.476
36.286,32.561
36.59,32.669
36.882,32.801
37.156,32.957
37.41,33.138
37.64,33.342
37.846,33.567
38.026,33.812
38.18,34.074
38.308,34.35
38.409,34.637
38.484,34.931
38.534,35.227
38.561,35.522
38.568,35.812
38.557,36.092
38.531,36.358
38.491,36.605
38.44,36.833
38.378,37.039
38.308,37.223
38.231,37.385
38.148,37.527
38.061,37.649
37.972,37.752
37.881,37.836
37.79,37.9
37.699,37.947
37.608,37.978
37.518,37.992
37.427,37.993
37.338,37.98
37.248,37.957
37.157,37.923
37.065,37.88
36.972,37.831
36.877,37.776
36.781,37.716
36.685,37.652
36.589,37.582
36.492,37.508
36.395,37.43
36.299,37.348
36.203,37.265
36.108,37.18
36.015,37.097
35.924,37.014
35.838,36.931
35.756,36.85
35.678,36.77
35.606,36.692
35.539,36.616
35.478,36.541
35.423,36.467
35.374,36.395
35.333,36.323
35.299,36.253
35.272,36.183
35.252,36.114
35.237,36.047
35.227,35.982
35.221,35.92
35.218,35.859
35.218,35.8
35.22,35.742
35.222,35.686
35.224,35.631
35.226,35.579
35.228,35.53
35.229,35.486
35.23,35.447
35.232,35.413
35.233,35.385
35.233,35.365
35.234,35.352
35.234,35.346
35.232,35.347
35.231,35.354
35.228,35.366
35.226,35.382
35.222,35.401
35.216,35.422
35.209,35.444
35.199,35.467
35.187,35.489
35.173,35.511
35.157,35.531
35.14,35.549
35.121,35.565
35.099,35.578
35.074,35.587
35.045,35.593
35.012,35.594
34.975,35.591
34.934,35.583
34.889,35.571
34.841,35.554
34.791,35.534
34.74,35.51
34.688,35.484
34.637,35.456
34.587,35.426
34.539,35.395
34.493,35.363
34.45,35.329
34.409,35.295
34.372,35.258
34.337,35.219
34.304,35.178
34.272,35.133
34.24,35.086
34.209,35.037
34.176,34.985
34.143,34.931
34.109,34.875
34.074,34.818
34.037,34.761
33.998,34.702
33.957,34.641
33.914,34.579
33.869,34.515
33.823,34.45
33.776,34.386
33.728,34.323
33.679,34.262
33.629,34.205
33.578,34.151
33.526,34.101
33.476,34.055
33.427,34.012
33.381,33.972
33.337,33.935
33.296,33.9
33.255,33.868
33.216,33.838
33.177,33.81
33.138,33.782
33.1,33.753
33.063,33.722
33.026,33.689
32.99,33.654
32.956,33.615
32.924,33.573
32.896,33.527
32.874,33.479
32.861,33.429
32.859,33.377
32.871,33.324
32.9,33.27
32.95,33.215
33.022,33.159
33.119,33.104
33.243,33.049
33.394,32.994
33.571,32.94
33.774,32.887
34.002,32.834
34.253,32.784
34.524,32.736
34.812,32.691
35.113,32.651
35.423,32.618
35.736,32.594
36.048,32.582
36.354,32.583
36.648,32.601
36.927,32.638
37.187,32.697
37.428,32.777
37.646,32.881
37.841,33.01
38.012,33.164
38.158,33.343
38.278,33.545
38.374,33.769
38.445,34.013
38.492,34.273
38.518,34.547
38.524,34.831
38.51,35.121
38.48,35.412
38.436,35.701
38.379,35.983
38.312,36.256
38.237,36.516
38.157,36.761
38.074,36.989
37.988,37.197
37.902,37.385
37.816,37.551
37.73,37.695
37.644,37.816
37.558,37.917
37.473,37.998
37.386,38.059
37.299,38.103
37.211,38.13
37.121,38.142
37.029,38.139
36.934,38.124
36.837,38.097
36.738,38.061
36.637,38.016
36.534,37.964
36.428,37.906
36.322,37.844
36.216,37.777
36.111,37.707
36.011,37.636
35.914,37.563
35.823,37.489
35.736,37.414
35.654,37.339
35.578,37.264
35.507,37.19
35.442,37.116
35.383,37.043
35.33,36.971
35.285,36.899
35.245,36.828
35.211,36.757
35.183,36.687
35.159,36.617
35.14,36.548
35.125,36.48
35.114,36.413
35.106,36.345
35.102,36.278
35.099,36.212
35.098,36.147
35.098,36.086
35.097,36.027
35.096,35.973
35.095,35.922
35.094,35.874
35.095,35.829
35.096,35.787
35.098,35.746
35.102,35.709
35.106,35.673
35.112,35.639
35.117,35.607
35.121,35.575
35.123,35.543
35.122,35.511
35.117,35.481
35.107,35.452
35.093,35.426
35.073,35.401
35.049,35.378
35.021,35.357
34.989,35.337
34.953,35.321
34.914,35.308
34.872,35.3
34.829,35.298
34.785,35.301
34.741,35.309
34.697,35.32
34.653,35.332
34.609,35.345
34.566,35.358
34.522,35.37
34.479,35.38
34.436,35.388
34.394,35.392
34.353,35.393
34.314,35.39
34.276,35.383
34.237,35.37
34.198,35.351
34.159,35.326
34.119,35.293
34.079,35.251
34.039,35.203
33.999,35.148
33.96,35.088
33.92,35.025
33.88,34.96
33.839,34.895
33.797,34.83
33.753,34.766
33.709,34.703
33.665,34.639
33.619,34.577
33.574,34.514
33.528,34.453
33.484,34.392
33.44,34.332
33.398,34.273
33.357,34.214
33.317,34.155
33.279,34.096
33.242,34.037
33.205,33.98
33.169,33.924
33.134,33.872
33.101,33.825
33.068,33.781
33.036,33.742
33.005,33.706
32.975,33.671
32.946,33.637
32.917,33.604
32.887,33.571
32.857,33.539
32.825,33.508
32.793,33.478
32.763,33.448
32.736,33.419
32.716,33.389
32.705,33.36
32.706,33.331
32.724,33.302
32.76,33.273
32.82,33.244
32.906,33.216
33.021,33.186
33.168,33.154
33.347,33.119
33.557,33.081
33.796,33.038
34.062,32.992
34.352,32.944
34.661,32.894
34.986,32.844
35.321,32.795
35.662,32.75
36.003,32.709
36.339,32.674
36.665,32.649
36.978,32.636
37.273,32.64
37.545,32.662
37.794,32.705
38.016,32.773
38.21,32.865
38.375,32.983
38.511,33.127
38.618,33.296
38.698,33.489
38.752,33.707
38.783,33.947
38.791,34.207
38.779,34.484
38.749,34.775
38.704,35.077
38.646,35.384
38.576,35.693
38.498,36
38.413,36.298
38.323,36.586
38.231,36.858
38.136,37.112
38.04,37.346
37.943,37.56
37.844,37.751
37.745,37.92
37.646,38.066
37.546,38.188
37.446,38.286
37.345,38.362
37.243,38.416
37.141,38.449
37.039,38.462
36.937,38.458
36.835,38.439
36.733,38.408
36.632,38.366
36.532,38.315
36.432,38.258
36.332,38.195
36.234,38.13
36.136,38.063
36.041,37.995
35.949,37.926
35.86,37.857
35.774,37.788
35.692,37.719
35.615,37.649
35.542,37.58
35.474,37.51
35.411,37.44
35.354,37.369
35.302,37.296
35.256,37.221
35.215,37.143
35.179,37.061
35.146,36.976
35.117,36.887
35.092,36.796
35.072,36.704
35.056,36.611
35.045,36.521
35.038,36.433
35.036,36.35
35.038,36.27
35.045,36.196
35.055,36.125
35.067,36.058
35.08,35.995
35.094,35.937
35.107,35.884
35.118,35.837
35.127,35.797
35.133,35.764
35.134,35.738
35.132,35.719
35.125,35.705
35.114,35.698
35.099,35.696
35.081,35.7
35.061,35.709
35.038,35.723
35.013,35.742
34.987,35.765
34.958,35.792
34.928,35.82
34.897,35.85
34.866,35.879
34.834,35.907
34.802,35.93
34.77,35.949
34.739,35.961
34.708,35.968
34.676,35.969
34.645,35.964
34.612,35.954
34.579,35.938
34.544,35.918
34.507,35.892
34.468,35.861
34.427,35.826
34.383,35.786
34.339,35.743
34.293,35.697
34.247,35.649
34.2,35.599
34.151,35.548
34.101,35.497
34.049,35.447
33.997,35.397
33.946,35.349
33.896,35.302
33.848,35.257
33.802,35.213
33.759,35.17
33.717,35.127
33.678,35.085
33.639,35.043
33.603,35.003
33.568,34.963
33.534,34.924
33.501,34.885
33.468,34.847
33.437,34.808
33.406,34.77
33.376,34.732
33.346,34.694
33.315,34.656
33.284,34.617
33.251,34.578
33.218,34.537
33.183,34.495
33.147,34.449
33.109,34.401
33.07,34.351
33.028,34.298
32.984,34.244
32.939,34.189
32.895,34.132
32.851,34.075
32.81,34.016
32.773,33.956
32.744,33.894
32.726,33.831
32.721,33.767
32.734,33.702
32.768,33.636
32.825,33.571
32.911,33.506
33.025,33.443
33.17,33.381
33.347,33.322
33.555,33.265
33.795,33.213
34.064,33.166
34.359,33.127
34.676,33.099
35.01,33.085
35.356,33.088
35.709,33.11
36.062,33.153
36.411,33.221
36.75,33.314
37.073,33.435
37.375,33.582
37.653,33.757
37.904,33.957
38.125,34.182
38.315,34.43
38.475,34.697
38.605,34.981
38.707,35.278
38.783,35.582
38.834,35.888
38.861,36.192
38.867,36.49
38.854,36.777
38.826,37.051
38.784,37.311
38.73,37.553
38.667,37.776
38.594,37.979
38.514,38.161
38.429,38.321
38.339,38.46
38.246,38.576
38.152,38.67
38.057,38.741
37.962,38.79
37.868,38.819
37.773,38.828
37.678,38.821
37.582,38.798
37.483,38.762
37.382,38.716
37.28,38.661
37.176,38.6
37.07,38.534
36.964,38.465
36.855,38.393
36.746,38.318
36.635,38.241
36.524,38.161
36.413,38.078
36.304,37.992
36.198,37.904
36.097,37.813
36.001,37.72
35.91,37.624
35.824,37.525
35.744,37.425
35.669,37.323
35.601,37.222
35.538,37.12
35.482,37.018
35.432,36.918
35.389,36.818
35.353,36.718
35.324,36.62
35.302,36.525
35.287,36.434
35.279,36.347
35.277,36.265
35.28,36.189
35.287,36.119
35.297,36.055
35.309,35.997
35.323,35.945
35.339,35.899
35.354,35.859
35.367,35.825
35.377,35.796
35.383,35.772
35.386,35.753
35.384,35.738
35.379,35.728
35.372,35.72
35.363,35.714
35.354,35.711
35.343,35.709
35.331,35.708
35.318,35.709
35.304,35.711
35.289,35.712
35.274,35.713
35.258,35.712
35.241,35.709
35.221,35.702
35.2,35.693
35.177,35.681
35.151,35.665
35.124,35.648
35.094,35.63
35.062,35.61
35.029,35.588
34.994,35.566
34.957,35.541
34.92,35.514
34.881,35.484
34.84,35.45
34.798,35.413
34.754,35.373
34.709,35.333
34.662,35.292
34.615,35.249
34.567,35.205
34.52,35.161
34.473,35.115
34.427,35.068
34.383,35.02
34.342,34.971
34.303,34.921
34.266,34.87
34.232,34.818
34.201,34.765
34.172,34.71
34.144,34.655
34.117,34.599
34.091,34.545
34.063,34.491
34.033,34.438
33.999,34.387
33.962,34.337
33.92,34.289
33.875,34.243
33.827,34.199
33.778,34.157
33.728,34.116
33.677,34.076
33.626,34.037
33.574,33.997
33.521,33.956
33.469,33.916
33.417,33.875
33.366,33.835
33.318,33.795
33.272,33.756
33.229,33.716
33.187,33.676
33.147,33.633
33.108,33.588
33.071,33.54
33.039,33.489
33.01,33.435
32.988,33.38
32.974,33.324
32.971,33.267
32.981,33.209
33.01,33.151
33.06,33.091
33.133,33.03
33.234,32.97
33.362,32.911
33.52,32.856
33.708,32.808
33.926,32.769
34.171,32.743
34.442,32.732
34.736,32.74
35.049,32.768
35.377,32.821
35.714,32.901
36.056,33.01
36.397,33.151
36.732,33.324
37.057,33.529
37.367,33.765
37.659,34.028
37.928,34.316
38.17,34.622
38.383,34.942
38.566,35.269
38.717,35.6
38.838,35.93
38.929,36.254
38.993,36.57
39.03,36.873
39.042,37.161
39.032,37.431
39.002,37.681
38.955,37.908
38.895,38.112
38.824,38.291
38.747,38.445
38.665,38.574
38.581,38.68
38.494,38.762
38.407,38.823
38.32,38.863
38.232,38.885
38.143,38.89
38.053,38.879
37.961,38.853
37.867,38.813
37.77,38.76
37.669,38.697
37.564,38.626
37.454,38.548
37.341,38.467
37.224,38.383
37.105,38.299
36.984,38.215
36.863,38.131
36.742,38.046
36.623,37.963
36.506,37.88
36.392,37.796
36.282,37.713
36.176,37.629
36.075,37.544
35.978,37.458
35.885,37.373
35.797,37.29
35.714,37.208
35.636,37.128
35.566,37.051
35.504,36.976
35.451,36.901
35.407,36.827
35.371,36.753
35.343,36.68
35.323,36.608
35.309,36.539
35.301,36.471
35.297,36.407
35.296,36.347
35.298,36.292
35.301,36.243
35.305,36.2
35.309,36.163
35.314,36.132
35.318,36.105
35.323,36.083
35.328,36.064
35.331,36.048
35.334,36.036
35.336,36.026
35.337,36.019
35.336,36.015
35.336,36.012
35.336,36.01
35.335,36.008
35.333,36.007
35.331,36.005
35.327,36.003
35.32,36.002
35.311,36.001
35.298,36
35.281,36.001
35.26,36.003
35.235,36.006
35.205,36.008
35.171,36.009
35.133,36.007
35.092,36.001
35.05,35.991
35.007,35.975
34.964,35.953
34.922,35.926
34.88,35.892
34.84,35.852
34.802,35.808
34.766,35.759
34.731,35.706
34.697,35.65
34.664,35.59
34.631,35.528
34.598,35.465
34.563,35.401
34.527,35.337
34.489,35.273
34.449,35.21
34.406,35.148
34.361,35.087
34.314,35.027
34.265,34.97
34.217,34.916
34.167,34.865
34.118,34.818
34.069,34.775
34.02,34.736
33.971,34.7
33.922,34.665
33.874,34.632
33.827,34.597
33.78,34.562
33.733,34.525
33.686,34.485
33.64,34.442
33.594,34.397
33.55,34.35
33.508,34.301
33.467,34.249
33.429,34.196
33.391,34.139
33.354,34.081
33.317,34.02
33.279,33.958
33.241,33.894
33.204,33.83
33.167,33.765
33.132,33.699
33.097,33.631
33.065,33.563
33.036,33.495
33.01,33.429
32.989,33.366
32.975,33.308
32.973,33.255
32.983,33.208
33.011,33.166
33.06,33.127
33.132,33.091
33.231,33.058
33.358,33.027
33.514,32.997
33.7,32.97
33.913,32.947
34.153,32.929
34.417,32.92
34.7,32.924
35.001,32.943
35.315,32.981
35.638,33.041
35.964,33.125
36.288,33.235
36.606,33.372
36.911,33.538
37.198,33.731
37.464,33.951
37.707,34.197
37.925,34.466
38.115,34.756
38.277,35.062
38.41,35.38
38.514,35.705
38.59,36.032
38.639,36.357
38.664,36.675
38.667,36.982
38.65,37.276
38.617,37.551
38.569,37.805
38.511,38.035
38.443,38.239
38.369,38.417
38.289,38.568
38.206,38.692
38.119,38.791
38.03,38.865
37.939,38.916
37.845,38.946
37.748,38.957
37.649,38.952
37.546,38.933
37.442,38.902
37.335,38.861
37.227,38.811
37.117,38.754
37.005,38.691
36.892,38.624
36.778,38.553
36.662,38.478
36.546,38.399
36.431,38.317
36.318,38.232
36.207,38.145
36.098,38.057
35.991,37.968
35.887,37.879
35.786,37.79
35.689,37.701
35.597,37.612
35.511,37.523
35.431,37.434
35.358,37.346
35.291,37.257
35.232,37.17
35.18,37.083
35.137,37
35.101,36.921
35.074,36.846
35.053,36.777
35.038,36.712
35.029,36.651
35.026,36.593
35.028,36.537
35.034,36.484
35.043,36.434
35.054,36.388
35.066,36.347
35.077,36.31
35.088,36.279
35.096,36.253
35.105,36.233
35.112,36.217
35.121,36.205
35.129,36.197
35.138,36.19
35.147,36.184
35.157,36.18
35.165,36.177
35.173,36.176
35.179,36.176
35.182,36.178
35.181,36.182
35.177,36.186
35.168,36.19
35.155,36.193
35.137,36.194
35.114,36.192
35.088,36.186
35.059,36.177
35.026,36.163
34.991,36.146
34.953,36.124
34.912,36.099
34.87,36.072
34.827,36.043
34.783,36.012
34.741,35.978
34.699,35.942
34.658,35.903
34.618,35.86
34.578,35.815
34.539,35.767
34.502,35.719
34.465,35.67
34.429,35.622
34.393,35.575
34.357,35.53
34.321,35.487
34.283,35.446
34.246,35.405
34.209,35.366
34.172,35.328
34.135,35.291
34.097,35.256
34.058,35.221
34.017,35.188
33.975,35.155
33.932,35.122
33.887,35.089
33.843,35.056
33.798,35.023
33.754,34.99
33.711,34.956
33.669,34.922
33.629,34.888
33.591,34.853
33.554,34.816
33.519,34.778
33.483,34.738
33.448,34.696
33.411,34.652
33.374,34.606
33.337,34.558
33.298,34.508
33.259,34.455
33.22,34.401
33.182,34.345
33.145,34.287
33.111,34.228
33.082,34.166
33.059,34.103
33.045,34.039
33.044,33.974
33.057,33.909
33.088,33.845
33.141,33.781
33.217,33.72
33.32,33.662
33.449,33.608
33.604,33.559
33.786,33.515
33.993,33.476
34.224,33.443
34.478,33.416
34.751,33.398
35.039,33.389
35.337,33.391
35.642,33.405
35.949,33.434
36.251,33.478
36.545,33.537
36.825,33.615
37.088,33.712
37.331,33.832
37.55,33.975
37.746,34.144
37.915,34.338
38.056,34.556
38.171,34.795
38.26,35.053
38.324,35.326
38.365,35.61
38.384,35.901
38.384,36.195
38.368,36.489
38.337,36.777
38.295,37.057
38.243,37.325
38.183,37.58
38.116,37.819
38.045,38.041
37.971,38.243
37.893,38.424
37.813,38.582
37.73,38.718
37.644,38.831
37.554,38.923
37.46,38.992
37.362,39.04
37.26,39.069
37.154,39.081
37.044,39.077
36.931,39.059
36.815,39.029
36.698,38.99
36.58,38.943
36.464,38.889
36.349,38.831
36.239,38.768
36.133,38.702
36.032,38.634
35.935,38.563
35.842,38.489
35.754,38.414
35.672,38.337
35.596,38.258
35.525,38.176
35.461,38.093
35.402,38.008
35.347,37.922
35.297,37.835
35.252,37.746
35.21,37.657
35.172,37.567
35.138,37.476
35.108,37.384
35.083,37.291
35.062,37.199
35.044,37.107
35.031,37.017
35.022,36.93
35.018,36.845
35.018,36.764
35.022,36.687
35.028,36.615
35.036,36.547
35.045,36.485
35.055,36.427
35.065,36.372
35.075,36.322
35.084,36.275
35.092,36.232
35.098,36.195
35.1,36.163
35.098,36.137
35.093,36.117
35.085,36.102
35.075,36.091
35.063,36.084
35.05,36.079
35.036,36.076
35.02,36.073
35.002,36.071
34.983,36.067
34.963,36.063
34.941,36.057
34.919,36.05
34.897,36.041
34.874,36.031
34.85,36.02
34.825,36.007
34.799,35.992
34.772,35.976
34.745,35.957
34.717,35.936
34.688,35.912
34.658,35.885
34.625,35.855
34.592,35.822
34.556,35.785
34.519,35.745
34.479,35.702
34.438,35.655
34.394,35.607
34.348,35.557
34.301,35.505
34.252,35.452
34.201,35.397
34.15,35.339
34.098,35.279
34.046,35.216
33.993,35.15
33.94,35.082
33.888,35.01
33.838,34.937
33.789,34.864
33.743,34.791
33.7,34.721
33.658,34.654
33.618,34.591
33.581,34.531
33.544,34.476
33.507,34.423
33.472,34.373
33.437,34.326
33.403,34.279
33.37,34.234
33.337,34.189
33.306,34.145
33.274,34.1
33.243,34.055
33.21,34.01
33.176,33.964
33.14,33.917
33.105,33.87
33.073,33.821
33.045,33.772
33.026,33.722
33.019,33.672
33.027,33.621
33.053,33.568
33.102,33.515
33.176,33.46
33.276,33.403
33.405,33.345
33.564,33.285
33.752,33.226
33.968,33.169
34.209,33.113
34.474,33.06
34.757,33.009
35.055,32.959
35.364,32.911
35.677,32.864
35.991,32.817
36.3,32.773
36.601,32.732
36.888,32.697
37.158,32.67
37.408,32.653
37.635,32.65
37.838,32.663
38.014,32.697
38.162,32.755
38.283,32.841
38.378,32.958
38.446,33.106
38.491,33.287
38.514,33.499
38.519,33.741
38.507,34.009
38.482,34.302
38.444,34.613
38.395,34.94
38.336,35.276
38.269,35.617
38.194,35.959
38.112,36.298
38.024,36.629
37.931,36.948
37.836,37.252
37.739,37.537
37.641,37.801
37.543,38.042
37.446,38.259
37.35,38.45
37.256,38.617
37.162,38.759
37.069,38.877
36.976,38.971
36.881,39.042
36.785,39.092
36.687,39.122
36.587,39.135
36.485,39.135
36.382,39.123
36.278,39.1
36.173,39.069
36.069,39.03
35.965,38.983
35.864,38.93
35.767,38.87
35.675,38.804
35.59,38.731
35.511,38.653
35.44,38.571
35.375,38.486
35.316,38.399
35.264,38.313
35.22,38.227
35.182,38.142
35.152,38.057
35.129,37.972
35.112,37.886
35.101,37.8
35.094,37.714
35.091,37.628
35.093,37.542
35.098,37.457
35.106,37.374
35.117,37.293
35.128,37.214
35.138,37.139
35.147,37.068
35.153,37
35.155,36.936
35.155,36.874
35.152,36.815
35.147,36.758
35.138,36.703
35.128,36.65
35.115,36.599
35.102,36.552
35.087,36.507
35.073,36.466
35.059,36.427
35.046,36.39
35.032,36.356
35.018,36.325
35.003,36.297
34.987,36.272
34.969,36.249
34.949,36.23
34.927,36.214
34.902,36.201
34.874,36.19
34.843,36.18
34.81,36.172
34.775,36.164
34.739,36.156
34.701,36.146
34.663,36.135
34.624,36.121
34.585,36.104
34.545,36.083
34.504,36.06
34.463,36.034
34.422,36.005
34.382,35.973
34.343,35.938
34.304,35.899
34.265,35.857
34.227,35.812
34.189,35.764
34.152,35.715
34.114,35.664
34.075,35.61
34.037,35.553
33.998,35.495
33.96,35.434
33.922,35.372
33.884,35.311
33.846,35.249
33.807,35.188
33.767,35.127
33.725,35.068
33.682,35.009
33.638,34.951
33.593,34.894
33.549,34.837
33.505,34.78
33.461,34.723
33.416,34.666
33.372,34.609
33.329,34.553
33.286,34.497
33.244,34.443
33.202,34.392
33.161,34.342
33.12,34.295
33.081,34.25
33.043,34.206
33.007,34.162
32.976,34.117
32.951,34.07
32.934,34.02
32.927,33.968
32.931,33.913
32.95,33.856
32.986,33.798
33.045,33.737
33.127,33.673
33.237,33.607
33.374,33.538
33.54,33.468
33.733,33.397
33.953,33.327
34.197,33.257
34.464,33.188
34.75,33.121
35.05,33.055
35.362,32.991
35.68,32.928
35.999,32.866
36.314,32.806
36.621,32.75
36.917,32.698
37.199,32.652
37.462,32.612
37.704,32.579
37.922,32.554
38.115,32.538
38.28,32.533
38.416,32.541
38.524,32.564
38.603,32.605
38.655,32.666
38.682,32.749
38.686,32.855
38.67,32.985
38.636,33.14
38.587,33.319
38.525,33.521
38.453,33.744
38.373,33.988
38.289,34.248
38.202,34.523
38.113,34.809
38.024,35.103
37.935,35.402
37.846,35.702
37.757,35.999
37.669,36.288
37.582,36.565
37.494,36.826
37.405,37.068
37.314,37.287
37.221,37.484
37.124,37.657
37.023,37.806
36.918,37.933
36.811,38.038
36.703,38.123
36.594,38.188
36.486,38.236
36.381,38.268
36.278,38.286
36.178,38.29
36.083,38.282
35.993,38.263
35.907,38.232
35.825,38.193
35.749,38.144
35.677,38.088
35.611,38.026
35.549,37.958
35.493,37.886
35.441,37.811
35.396,37.732
35.356,37.651
35.322,37.566
35.293,37.48
35.27,37.392
35.253,37.302
35.242,37.21
35.236,37.117
35.237,37.024
35.242,36.931
35.251,36.841
35.263,36.753
35.277,36.669
35.291,36.588
35.306,36.51
35.32,36.435
35.331,36.363
35.34,36.292
35.345,36.224
35.346,36.158
35.344,36.095
35.339,36.034
35.331,35.975
35.32,35.918
35.308,35.864
35.293,35.813
35.277,35.765
35.26,35.72
35.241,35.679
35.221,35.642
35.201,35.607
35.181,35.574
35.16,35.543
35.138,35.513
35.115,35.487
35.09,35.462
35.063,35.44
35.033,35.422
35.002,35.407
34.969,35.395
34.935,35.386
34.901,35.38
34.866,35.375
34.831,35.372
34.797,35.367
34.763,35.362
34.73,35.353
34.696,35.342
34.661,35.326
34.625,35.308
34.588,35.288
34.55,35.266
34.511,35.244
34.471,35.221
34.43,35.199
34.387,35.175
34.343,35.15
34.298,35.124
34.251,35.095
34.203,35.066
34.154,35.034
34.106,35.001
34.058,34.967
34.011,34.932
33.964,34.896
33.918,34.858
33.871,34.818
33.825,34.777
33.779,34.736
33.733,34.694
33.688,34.653
33.645,34.611
33.604,34.57
33.564,34.53
33.527,34.491
33.491,34.452
33.458,34.415
33.426,34.377
33.395,34.338
33.365,34.297
33.335,34.253
33.305,34.207
33.272,34.157
33.239,34.105
33.205,34.051
33.169,33.994
33.134,33.935
33.101,33.875
33.072,33.814
33.05,33.751
33.039,33.686
33.042,33.62
33.063,33.554
33.106,33.489
33.176,33.426
33.275,33.366
33.403,33.31
33.563,33.258
33.754,33.209
33.974,33.162
34.222,33.118
34.493,33.075
34.785,33.036
35.093,32.999
35.413,32.966
35.738,32.935
36.063,32.907
36.384,32.88
36.695,32.854
36.993,32.829
37.272,32.805
37.53,32.782
37.764,32.761
37.972,32.741
38.152,32.722
38.305,32.706
38.43,32.691
38.528,32.678
38.601,32.668
38.648,32.665
38.673,32.671
38.677,32.691
38.66,32.728
38.627,32.787
38.578,32.871
38.516,32.983
38.443,33.124
38.36,33.296
38.271,33.498
38.177,33.73
38.079,33.99
37.979,34.275
37.876,34.581
37.772,34.902
37.668,35.234
37.565,35.571
37.463,35.908
37.363,36.24
37.264,36.562
37.168,36.87
37.072,37.159
36.977,37.427
36.881,37.668
36.785,37.883
36.687,38.069
36.589,38.228
36.489,38.36
36.388,38.466
36.286,38.547
36.183,38.606
36.08,38.643
35.98,38.661
35.884,38.66
35.793,38.642
35.709,38.61
35.632,38.563
35.562,38.504
35.502,38.436
35.449,38.36
35.404,38.28
35.368,38.198
35.338,38.116
35.315,38.036
35.297,37.959
35.284,37.885
35.275,37.813
35.268,37.744
35.264,37.678
35.262,37.614
35.261,37.55
35.26,37.485
35.258,37.418
35.256,37.35
35.252,37.278
35.25,37.205
35.248,37.129
35.247,37.05
35.248,36.968
35.25,36.884
35.252,36.797
35.256,36.708
35.259,36.619
35.262,36.531
35.264,36.446
35.265,36.364
35.265,36.286
35.264,36.214
35.26,36.148
35.252,36.088
35.241,36.034
35.225,35.986
35.207,35.945
35.185,35.909
35.161,35.88
35.135,35.855
35.107,35.837
35.077,35.822
35.045,35.812
35.011,35.805
34.976,35.8
34.94,35.797
34.904,35.793
34.867,35.788
34.829,35.781
34.791,35.771
34.752,35.76
34.712,35.747
34.672,35.733
34.632,35.719
34.591,35.704
34.55,35.688
34.508,35.67
34.465,35.65
34.422,35.629
34.38,35.608
34.338,35.586
34.297,35.563
34.256,35.542
34.215,35.521
34.172,35.5
34.129,35.478
34.084,35.456
34.039,35.432
33.995,35.407
33.951,35.378
33.909,35.346
33.868,35.311
33.828,35.272
33.79,35.232
33.754,35.189
33.721,35.145
33.69,35.1
33.661,35.055
33.635,35.008
33.609,34.96
33.584,34.912
33.558,34.864
33.533,34.816
33.506,34.768
33.478,34.722
33.448,34.675
33.416,34.63
33.382,34.584
33.346,34.536
33.307,34.488
33.268,34.438
33.228,34.385
33.19,34.331
33.154,34.274
33.123,34.214
33.098,34.151
33.082,34.087
33.077,34.02
33.087,33.952
33.116,33.882
33.168,33.812
33.245,33.743
33.349,33.675
33.483,33.609
33.646,33.546
33.838,33.485
34.059,33.428
34.306,33.376
34.577,33.327
34.867,33.283
35.171,33.244
35.483,33.21
35.799,33.18
36.112,33.154
36.418,33.131
36.713,33.111
36.993,33.094
37.255,33.078
37.497,33.064
37.715,33.053
37.909,33.047
38.079,33.048
38.225,33.059
38.348,33.083
38.448,33.122
38.526,33.18
38.584,33.259
38.621,33.362
38.641,33.489
38.645,33.643
38.633,33.821
38.608,34.023
38.57,34.248
38.52,34.494
38.461,34.759
38.393,35.04
38.317,35.334
38.234,35.635
38.145,35.938
38.051,36.239
37.953,36.532
37.852,36.813
37.75,37.077
37.648,37.323
37.547,37.546
37.445,37.747
37.343,37.923
37.242,38.075
37.141,38.204
37.042,38.309
36.944,38.393
36.848,38.455
36.754,38.497
36.662,38.519
36.572,38.524
36.483,38.514
36.394,38.489
36.306,38.452
36.219,38.403
36.133,38.346
36.049,38.281
35.968,38.211
35.891,38.138
35.817,38.063
35.749,37.985
35.687,37.907
35.63,37.827
35.58,37.745
35.537,37.664
35.501,37.582
35.472,37.5
35.449,37.421
35.433,37.343
35.421,37.266
35.415,37.189
35.413,37.113
35.416,37.038
35.421,36.962
35.429,36.887
35.439,36.812
35.452,36.737
35.467,36.662
35.484,36.586
35.501,36.511
35.517,36.435
35.533,36.361
35.546,36.288
35.557,36.217
35.566,36.149
35.572,36.083
35.576,36.02
35.578,35.96
35.577,35.904
35.572,35.851
35.564,35.803
35.552,35.76
35.536,35.722
35.517,35.691
35.494,35.665
35.469,35.644
35.44,35.629
35.408,35.616
35.372,35.606
35.334,35.597
35.294,35.589
35.252,35.581
35.211,35.572
35.17,35.563
35.131,35.555
35.094,35.546
35.059,35.539
35.026,35.532
34.993,35.526
34.96,35.518
34.928,35.508
34.894,35.496
34.858,35.48
34.82,35.462
34.781,35.441
34.739,35.419
34.697,35.395
34.653,35.37
34.609,35.344
34.564,35.317
34.52,35.289
34.475,35.259
34.431,35.228
34.387,35.196
34.344,35.163
34.301,35.129
34.261,35.094
34.22,35.058
34.18,35.021
34.14,34.984
34.099,34.947
34.057,34.909
34.015,34.87
33.973,34.831
33.931,34.791
33.889,34.749
33.848,34.707
33.808,34.663
33.768,34.618
33.729,34.571
33.691,34.522
33.654,34.47
33.617,34.415
33.581,34.357
33.545,34.296
33.509,34.233
33.475,34.168
33.443,34.101
33.415,34.034
33.394,33.967
33.381,33.9
33.379,33.834
33.391,33.768
33.42,33.704
33.47,33.64
33.545,33.577
33.646,33.517
33.777,33.46
33.938,33.407
34.129,33.357
34.348,33.312
34.594,33.271
34.863,33.234
35.15,33.201
35.452,33.171
35.764,33.145
36.08,33.12
36.394,33.098
36.7,33.075
36.995,33.052
37.274,33.029
37.532,33.004
37.768,32.977
37.979,32.948
38.164,32.919
38.323,32.89
38.456,32.864
38.564,32.842
38.649,32.828
38.71,32.824
38.75,32.834
38.77,32.862
38.771,32.913
38.754,32.988
38.721,33.092
38.673,33.226
38.612,33.39
38.539,33.586
38.457,33.812
38.367,34.068
38.27,34.353
38.17,34.662
38.068,34.992
37.965,35.337
37.863,35.691
37.763,36.047
37.664,36.4
37.567,36.743
37.472,37.071
37.378,37.379
37.286,37.664
37.194,37.924
37.102,38.157
37.008,38.362
36.912,38.537
36.815,38.683
36.716,38.801
36.615,38.893
36.514,38.959
36.412,39.002
36.311,39.024
36.211,39.03
36.114,39.021
36.021,38.999
35.932,38.968
35.85,38.928
35.774,38.881
35.706,38.831
35.644,38.778
35.589,38.722
35.541,38.665
35.5,38.607
35.465,38.548
35.437,38.488
35.415,38.428
35.398,38.368
35.385,38.306
35.375,38.244
35.367,38.179
35.359,38.112
35.352,38.041
35.344,37.968
35.336,37.894
35.327,37.82
35.32,37.746
35.313,37.673
35.306,37.598
35.3,37.524
35.295,37.45
35.291,37.376
35.288,37.303
35.286,37.231
35.287,37.161
35.289,37.093
35.291,37.026
35.294,36.961
35.294,36.898
35.292,36.838
35.287,36.779
35.278,36.724
35.266,36.67
35.251,36.619
35.232,36.57
35.21,36.524
35.185,36.481
35.157,36.441
35.126,36.407
35.093,36.378
35.058,36.354
35.021,36.336
34.982,36.323
34.941,36.312
34.9,36.305
34.858,36.299
34.816,36.293
34.773,36.289
34.73,36.283
34.686,36.276
34.642,36.266
34.599,36.255
34.556,36.241
34.515,36.225
34.475,36.204
34.435,36.18
34.396,36.153
34.356,36.121
34.315,36.084
34.275,36.045
34.234,36.003
34.192,35.96
34.15,35.916
34.108,35.872
34.064,35.827
34.019,35.781
33.972,35.735
33.924,35.688
33.874,35.641
33.824,35.594
33.774,35.548
33.726,35.503
33.68,35.46
33.637,35.418
33.597,35.378
33.56,35.337
33.525,35.296
33.491,35.254
33.458,35.212
33.426,35.168
33.393,35.124
33.36,35.079
33.327,35.032
33.293,34.985
33.26,34.936
33.227,34.887
33.194,34.836
33.162,34.784
33.128,34.732
33.093,34.678
33.061,34.624
33.032,34.569
33.011,34.514
33,34.461
33.002,34.409
33.02,34.359
33.058,34.311
33.12,34.264
33.207,34.217
33.322,34.17
33.468,34.121
33.646,34.07
33.856,34.015
34.096,33.957
34.364,33.897
34.657,33.836
34.971,33.773
35.3,33.71
35.64,33.646
35.983,33.581
36.325,33.514
36.66,33.447
36.983,33.378
37.288,33.308
37.572,33.24
37.832,33.173
38.064,33.11
38.268,33.054
38.443,33.007
38.588,32.973
38.705,32.954
38.795,32.954
38.859,32.978
38.899,33.027
38.917,33.105
38.916,33.213
38.898,33.349
38.865,33.516
38.819,33.71
38.762,33.929
38.695,34.172
38.618,34.433
38.534,34.711
38.444,34.999
38.35,35.296
38.253,35.595
38.154,35.895
38.055,36.19
37.957,36.476
37.86,36.752
37.764,37.012
37.668,37.252
37.573,37.469
37.477,37.658
37.382,37.813
37.287,37.932
37.192,38.012
37.096,38.051
36.999,38.05
36.901,38.011
36.802,37.936
36.702,37.831
36.601,37.701
36.501,37.551
36.403,37.389
36.307,37.221
36.215,37.051
36.126,36.886
36.042,36.729
35.963,36.583
35.888,36.452
35.818,36.336
35.753,36.237
35.694,36.152
35.639,36.082
35.59,36.025
35.546,35.98
35.508,35.944
35.476,35.914
35.449,35.891
35.428,35.87
35.412,35.85
35.4,35.829
35.39,35.806
35.383,35.778
35.378,35.747
35.374,35.711
35.372,35.669
35.37,35.621
35.37,35.569
35.371,35.511
35.373,35.448
35.376,35.383
35.381,35.316
35.386,35.25
35.391,35.187
35.395,35.128
35.397,35.074
35.397,35.026
35.395,34.984
35.392,34.948
35.386,34.918
35.377,34.893
35.367,34.874
35.356,34.86
35.342,34.85
35.325,34.845
35.306,34.844
35.282,34.846
35.254,34.85
35.221,34.856
35.185,34.861
35.146,34.866
35.104,34.869
35.061,34.869
35.016,34.866
34.969,34.861
34.921,34.854
34.874,34.845
34.827,34.837
34.782,34.829
34.738,34.819
34.697,34.808
34.657,34.796
34.617,34.781
34.578,34.766
34.538,34.749
34.497,34.732
34.454,34.714
34.411,34.695
34.365,34.674
34.319,34.652
34.272,34.628
34.224,34.602
34.176,34.574
34.128,34.545
34.082,34.515
34.036,34.487
33.992,34.46
33.949,34.435
33.908,34.412
33.867,34.39
33.828,34.369
33.791,34.349
33.755,34.331
33.72,34.313
33.685,34.297
33.65,34.281
33.615,34.266
33.58,34.252
33.544,34.238
33.509,34.224
33.475,34.209
33.441,34.195
33.407,34.178
33.372,34.16
33.335,34.138
33.296,34.112
33.254,34.08
33.21,34.043
33.165,34.002
33.119,33.956
33.075,33.907
33.033,33.854
32.997,33.798
32.968,33.74
32.949,33.679
32.943,33.617
32.954,33.554
32.985,33.492
33.04,33.432
33.121,33.375
33.232,33.321
33.373,33.27
33.547,33.223
33.752,33.18
33.989,33.143
34.253,33.113
34.542,33.088
34.85,33.072
35.175,33.062
35.51,33.059
35.85,33.062
36.19,33.07
36.525,33.081
36.849,33.094
37.157,33.108
37.445,33.123
37.71,33.139
37.95,33.154
38.163,33.17
38.348,33.187
38.507,33.205
38.638,33.228
38.743,33.257
38.821,33.294
38.873,33.34
38.901,33.397
38.907,33.468
38.893,33.554
38.861,33.655
38.813,33.775
38.751,33.912
38.676,34.068
38.592,34.243
38.5,34.434
38.402,34.641
38.301,34.862
38.199,35.094
38.097,35.334
37.997,35.58
37.899,35.827
37.804,36.072
37.71,36.314
37.618,36.548
37.527,36.77
37.437,36.977
37.347,37.165
37.256,37.332
37.162,37.477
37.066,37.601
36.966,37.702
36.862,37.783
36.755,37.846
36.646,37.891
36.536,37.922
36.427,37.94
36.32,37.947
36.215,37.945
36.115,37.934
36.02,37.916
35.93,37.892
35.847,37.862
35.771,37.827
35.703,37.788
35.642,37.745
35.589,37.699
35.542,37.65
35.501,37.597
35.465,37.541
35.434,37.483
35.408,37.422
35.387,37.359
35.372,37.294
35.362,37.226
35.355,37.157
35.351,37.085
35.349,37.011
35.35,36.935
35.351,36.857
35.353,36.778
35.357,36.698
35.36,36.618
35.364,36.537
35.368,36.455
35.373,36.373
35.376,36.289
35.38,36.203
35.382,36.114
35.384,36.022
35.383,35.928
35.38,35.833
35.373,35.737
35.363,35.642
35.35,35.551
35.333,35.467
35.313,35.39
35.292,35.324
35.269,35.269
35.244,35.226
35.217,35.195
35.188,35.176
35.158,35.169
35.127,35.172
35.094,35.185
35.06,35.206
35.025,35.233
34.99,35.265
34.954,35.297
34.918,35.329
34.881,35.358
34.844,35.383
34.805,35.403
34.766,35.419
34.724,35.43
34.68,35.436
34.634,35.438
34.586,35.435
34.537,35.429
34.487,35.417
34.437,35.403
34.387,35.384
34.338,35.363
34.29,35.339
34.243,35.313
34.197,35.285
34.153,35.257
34.109,35.229
34.066,35.203
34.023,35.179
33.981,35.157
33.94,35.136
33.899,35.118
33.859,35.101
33.819,35.086
33.779,35.073
33.739,35.064
33.699,35.057
33.659,35.053
33.619,35.05
33.581,35.048
33.543,35.044
33.506,35.038
33.47,35.027
33.436,35.012
33.401,34.992
33.367,34.967
33.333,34.939
33.298,34.907
33.263,34.873
33.229,34.837
33.195,34.799
33.162,34.759
33.128,34.719
33.094,34.678
33.06,34.636
33.027,34.594
32.996,34.55
32.967,34.505
32.942,34.46
32.923,34.415
32.91,34.371
32.908,34.33
32.917,34.291
32.942,34.255
32.986,34.221
33.051,34.189
33.14,34.16
33.256,34.134
33.4,34.111
33.575,34.091
33.779,34.075
34.013,34.063
34.274,34.054
34.561,34.049
34.868,34.048
35.19,34.051
35.524,34.058
35.863,34.073
36.203,34.096
36.539,34.129
36.865,34.176
37.175,34.237
37.466,34.314
37.733,34.409
37.971,34.523
38.18,34.657
38.359,34.809
38.506,34.981
38.624,35.171
38.713,35.377
38.777,35.596
38.818,35.826
38.837,36.06
38.838,36.295
38.822,36.525
38.793,36.746
38.753,36.955
38.704,37.148
38.649,37.324
38.587,37.481
38.52,37.62
38.448,37.742
38.371,37.848
38.289,37.94
38.202,38.018
38.109,38.086
38.012,38.144
37.91,38.195
37.804,38.24
37.696,38.279
37.586,38.313
37.476,38.341
37.366,38.364
37.255,38.38
37.144,38.39
37.032,38.394
36.919,38.39
36.807,38.378
36.694,38.358
36.584,38.33
36.476,38.295
36.372,38.253
36.271,38.206
36.175,38.154
36.083,38.097
35.996,38.035
35.914,37.969
35.837,37.899
35.765,37.826
35.699,37.752
35.638,37.678
35.582,37.604
35.532,37.531
35.487,37.457
35.448,37.384
35.414,37.31
35.387,37.236
35.365,37.16
35.35,37.084
35.339,37.006
35.334,36.928
35.333,36.848
35.337,36.77
35.344,36.693
35.354,36.618
35.366,36.548
35.378,36.482
35.39,36.419
35.402,36.359
35.413,36.302
35.421,36.247
35.428,36.194
35.433,36.145
35.435,36.1
35.433,36.06
35.428,36.025
35.419,35.996
35.408,35.972
35.395,35.952
35.382,35.937
35.368,35.926
35.354,35.918
35.337,35.913
35.319,35.908
35.298,35.905
35.276,35.901
35.252,35.899
35.227,35.896
35.199,35.895
35.169,35.895
35.135,35.895
35.099,35.896
35.06,35.895
35.019,35.894
34.977,35.892
34.937,35.887
34.896,35.882
34.857,35.875
34.818,35.866
34.781,35.855
34.745,35.841
34.71,35.825
34.675,35.805
34.64,35.783
34.604,35.759
34.565,35.733
34.524,35.706
34.48,35.677
34.433,35.648
34.384,35.617
34.333,35.584
34.279,35.549
34.222,35.514
34.164,35.477
34.106,35.439
34.048,35.401
33.993,35.362
33.941,35.322
33.893,35.28
33.848,35.236
33.808,35.192
33.77,35.147
33.735,35.102
33.703,35.056
33.672,35.011
33.642,34.966
33.612,34.922
33.581,34.88
33.549,34.839
33.514,34.801
33.476,34.768
33.437,34.741
33.395,34.721
33.353,34.707
33.311,34.698
33.269,34.694
33.226,34.694
33.184,34.697
33.142,34.701
33.1,34.706
33.059,34.71
33.02,34.712
32.985,34.711
32.955,34.706
32.933,34.696
32.923,34.682
32.927,34.664
32.95,34.64
32.994,34.611
33.064,34.576
33.161,34.536
33.288,34.492
33.446,34.445
33.633,34.397
33.85,34.347
34.094,34.297
34.361,34.247
34.649,34.198
34.953,34.149
35.268,34.101
35.589,34.055
35.911,34.013
36.229,33.977
36.541,33.948
36.842,33.929
37.128,33.922
37.398,33.932
37.648,33.959
37.876,34.008
38.079,34.081
38.258,34.179
38.41,34.304
38.537,34.457
38.639,34.636
38.717,34.842
38.773,35.073
38.806,35.326
38.817,35.597
38.809,35.884
38.783,36.182
38.74,36.485
38.682,36.788
38.613,37.087
38.534,37.375
38.447,37.649
38.355,37.906
38.259,38.143
38.161,38.358
38.062,38.55
37.961,38.717
37.861,38.862
37.762,38.984
37.663,39.085
37.564,39.166
37.465,39.228
37.366,39.271
37.265,39.298
37.162,39.308
37.058,39.304
36.952,39.288
36.846,39.261
36.74,39.226
36.634,39.184
36.527,39.137
36.421,39.084
36.316,39.026
36.212,38.964
36.11,38.898
36.013,38.83
35.919,38.759
35.83,38.685
35.745,38.608
35.666,38.53
35.593,38.45
35.525,38.369
35.464,38.288
35.41,38.207
35.364,38.127
35.324,38.047
35.291,37.967
35.265,37.886
35.243,37.804
35.226,37.722
35.213,37.64
35.204,37.558
35.198,37.475
35.195,37.394
35.193,37.313
35.192,37.233
35.192,37.157
35.192,37.083
35.192,37.012
35.191,36.943
35.191,36.877
35.19,36.813
35.189,36.753
35.188,36.695
35.186,36.642
35.184,36.595
35.182,36.554
35.18,36.521
35.177,36.496
35.173,36.478
35.168,36.468
35.16,36.463
35.149,36.464
35.134,36.467
35.113,36.473
35.088,36.478
35.057,36.483
35.022,36.485
34.982,36.486
34.941,36.485
34.898,36.481
34.854,36.474
34.809,36.464
34.765,36.45
34.72,36.432
34.675,36.41
34.629,36.383
34.583,36.353
34.535,36.319
34.486,36.283
34.436,36.247
34.385,36.21
34.333,36.174
34.281,36.137
34.23,36.101
34.179,36.065
34.128,36.028
34.078,35.99
34.029,35.949
33.982,35.904
33.936,35.856
33.894,35.803
33.853,35.747
33.815,35.689
33.777,35.627
33.741,35.564
33.704,35.499
33.665,35.432
33.626,35.364
33.584,35.295
33.541,35.225
33.496,35.155
33.45,35.084
33.403,35.013
33.356,34.945
33.308,34.878
33.261,34.816
33.215,34.758
33.17,34.703
33.127,34.652
33.085,34.603
33.045,34.556
33.006,34.509
32.968,34.462
32.931,34.415
32.895,34.368
32.859,34.321
32.823,34.274
32.787,34.227
32.752,34.181
32.719,34.136
32.688,34.092
32.661,34.049
32.639,34.005
32.623,33.962
32.618,33.918
32.625,33.874
32.649,33.83
32.693,33.786
32.76,33.74
32.854,33.693
32.978,33.643
33.133,33.592
33.319,33.539
33.538,33.483
33.785,33.427
34.059,33.37
34.357,33.313
34.674,33.258
35.006,33.207
35.346,33.163
35.69,33.129
36.033,33.11
36.369,33.109
36.693,33.13
37.003,33.178
37.295,33.255
37.566,33.363
37.813,33.503
38.034,33.675
38.228,33.878
38.391,34.109
38.525,34.364
38.629,34.641
38.704,34.933
38.751,35.237
38.772,35.547
38.769,35.857
38.745,36.163
38.702,36.46
38.644,36.745
38.573,37.015
38.492,37.267
38.403,37.497
38.311,37.704
38.216,37.886
38.12,38.042
38.023,38.173
37.925,38.277
37.826,38.357
37.727,38.415
37.629,38.452
37.53,38.473
37.432,38.478
37.335,38.471
37.237,38.452
37.14,38.423
37.042,38.387
36.943,38.342
36.841,38.292
36.739,38.236
36.636,38.176
36.532,38.113
36.429,38.048
36.326,37.98
36.224,37.911
36.122,37.842
36.02,37.772
35.921,37.702
35.825,37.633
35.732,37.564
35.642,37.495
35.557,37.424
35.476,37.352
35.4,37.279
35.33,37.204
35.266,37.128
35.21,37.052
35.161,36.975
35.12,36.897
35.087,36.819
35.06,36.74
35.04,36.661
35.026,36.583
35.018,36.506
35.016,36.429
35.018,36.351
35.025,36.273
35.034,36.194
35.046,36.114
35.06,36.034
35.075,35.953
35.09,35.874
35.104,35.798
35.118,35.725
35.13,35.657
35.139,35.596
35.146,35.54
35.15,35.493
35.149,35.453
35.144,35.422
35.136,35.399
35.123,35.384
35.107,35.376
35.086,35.373
35.061,35.375
35.034,35.38
35.003,35.386
34.972,35.393
34.939,35.398
34.905,35.402
34.87,35.404
34.835,35.404
34.8,35.403
34.764,35.401
34.728,35.397
34.691,35.391
34.652,35.383
34.614,35.373
34.574,35.36
34.533,35.345
34.491,35.327
34.447,35.306
34.403,35.282
34.359,35.255
34.315,35.227
34.272,35.196
34.23,35.165
34.189,35.134
34.148,35.102
34.109,35.07
34.07,35.036
34.031,35
33.992,34.962
33.953,34.921
33.914,34.875
33.875,34.825
33.835,34.772
33.793,34.715
33.75,34.655
33.706,34.594
33.661,34.532
33.615,34.469
33.568,34.405
33.519,34.338
33.469,34.27
33.418,34.201
33.367,34.133
33.317,34.067
33.267,34.004
33.216,33.946
33.165,33.891
33.113,33.842
33.061,33.796
33.009,33.754
32.961,33.716
32.916,33.681
32.874,33.648
32.838,33.617
32.805,33.588
32.774,33.561
32.746,33.534
32.719,33.507
32.693,33.478
32.667,33.447
32.643,33.413
32.621,33.377
32.6,33.338
32.584,33.296
32.573,33.251
32.571,33.204
32.581,33.154
32.606,33.102
32.651,33.047
32.718,32.991
32.81,32.934
32.932,32.875
33.084,32.814
33.268,32.753
33.484,32.692
33.731,32.631
34.006,32.574
34.306,32.52
34.624,32.473
34.957,32.435
35.296,32.41
35.638,32.4
35.975,32.408
36.303,32.439
36.615,32.493
36.907,32.575
37.175,32.685
37.414,32.825
37.624,32.997
37.804,33.2
37.955,33.432
38.077,33.69
38.172,33.969
38.241,34.267
38.288,34.579
38.314,34.899
38.322,35.223
38.314,35.546
38.292,35.864
38.257,36.172
38.212,36.465
38.157,36.741
38.095,36.998
38.027,37.233
37.953,37.446
37.874,37.636
37.789,37.803
37.7,37.947
37.606,38.068
37.51,38.168
37.411,38.248
37.31,38.308
37.207,38.35
37.102,38.374
36.996,38.379
36.89,38.364
36.784,38.328
36.679,38.269
36.575,38.189
36.472,38.085
36.37,37.958
36.271,37.811
36.173,37.645
36.076,37.464
35.981,37.271
35.887,37.072
35.796,36.871
35.706,36.671
35.619,36.478
35.535,36.292
35.454,36.118
35.378,35.957
35.307,35.81
35.239,35.679
35.175,35.563
35.114,35.462
35.056,35.374
35.001,35.299
34.95,35.234
34.903,35.178
34.861,35.127
34.824,35.08
34.793,35.037
34.767,34.996
34.747,34.956
34.732,34.918
34.721,34.88
34.713,34.844
34.708,34.809
34.704,34.775
34.702,34.742
34.699,34.709
34.696,34.676
34.693,34.644
34.688,34.612
34.682,34.581
34.675,34.552
34.667,34.526
34.659,34.504
34.653,34.486
34.648,34.471
34.645,34.46
34.642,34.451
34.639,34.443
34.633,34.436
34.625,34.428
34.614,34.419
34.599,34.408
34.58,34.396
34.556,34.383
34.527,34.369
34.493,34.356
34.456,34.342
34.415,34.328
34.372,34.313
34.328,34.296
34.284,34.278
34.241,34.258
34.2,34.236
34.159,34.214
34.119,34.193
34.08,34.173
34.041,34.155
34.004,34.141
33.966,34.129
33.93,34.12
33.893,34.114
33.857,34.11
33.82,34.108
33.782,34.109
33.742,34.11
33.701,34.112
33.657,34.114
33.611,34.115
33.564,34.114
33.515,34.109
33.466,34.099
33.417,34.084
33.369,34.064
33.323,34.039
33.278,34.009
33.233,33.976
33.189,33.942
33.145,33.906
33.102,33.87
33.059,33.833
33.016,33.795
32.974,33.757
32.933,33.719
32.893,33.681
32.853,33.645
32.813,33.609
32.775,33.574
32.738,33.541
32.702,33.509
32.669,33.48
32.636,33.453
32.604,33.428
32.571,33.406
32.539,33.385
32.506,33.366
32.473,33.348
32.438,33.331
32.403,33.316
32.369,33.304
32.335,33.295
32.306,33.289
32.282,33.287
32.267,33.289
32.264,33.296
32.274,33.307
32.301,33.324
32.345,33.346
32.409,33.372
32.496,33.401
32.606,33.431
32.741,33.46
32.899,33.486
33.079,33.506
33.281,33.519
33.501,33.524
33.736,33.52
33.983,33.507
34.237,33.485
34.494,33.457
34.752,33.423
35.006,33.386
35.253,33.348
35.488,33.312
35.711,33.284
35.917,33.267
36.105,33.265
36.275,33.284
36.426,33.329
36.555,33.401
36.664,33.503
36.752,33.637
36.819,33.803
36.866,34.001
36.895,34.229
36.906,34.485
36.903,34.766
36.885,35.066
36.857,35.381
36.819,35.705
36.773,36.032
36.719,36.357
36.66,36.676
36.595,36.983
36.526,37.275
36.455,37.546
36.383,37.795
36.31,38.017
36.237,38.213
36.165,38.382
36.093,38.524
36.022,38.642
35.95,38.736
35.876,38.808
35.801,38.861
35.725,38.895
35.648,38.914
35.569,38.917
35.49,38.907
35.41,38.884
35.33,38.849
35.25,38.804
35.171,38.749
35.092,38.686
35.013,38.616
34.935,38.543
34.859,38.467
34.785,38.391
34.714,38.315
34.646,38.24
34.581,38.167
34.521,38.095
34.465,38.023
34.415,37.952
34.37,37.881
34.33,37.81
34.295,37.74
34.266,37.669
34.242,37.6
34.222,37.532
34.205,37.466
34.191,37.401
34.179,37.336
34.169,37.271
34.162,37.206
34.156,37.139
34.151,37.072
34.146,37.002
34.143,36.931
34.139,36.858
34.136,36.784
34.133,36.71
34.129,36.637
34.125,36.565
34.121,36.496
34.116,36.429
34.111,36.366
34.106,36.306
34.099,36.252
34.092,36.202
34.084,36.157
34.076,36.116
34.067,36.079
34.057,36.044
34.048,36.012
34.037,35.98
34.025,35.951
34.011,35.923
33.994,35.898
33.974,35.875
33.951,35.854
33.925,35.834
33.897,35.816
33.866,35.8
33.834,35.784
33.8,35.77
33.764,35.758
33.728,35.747
33.691,35.736
33.653,35.725
33.616,35.713
33.581,35.698
33.548,35.679
33.517,35.657
33.489,35.632
33.463,35.604
33.438,35.572
33.414,35.537
33.389,35.5
33.361,35.46
33.331,35.418
33.3,35.375
33.266,35.331
33.231,35.287
33.195,35.242
33.159,35.199
33.122,35.156
33.085,35.114
33.047,35.073
33.008,35.034
32.969,34.997
32.929,34.96
32.889,34.924
32.85,34.886
32.813,34.847
32.777,34.805
32.741,34.761
32.707,34.713
32.673,34.663
32.64,34.611
32.609,34.558
32.579,34.503
32.552,34.446
32.525,34.389
32.5,34.331
32.476,34.271
32.451,34.211
32.427,34.149
32.404,34.088
32.382,34.027
32.361,33.967
32.343,33.906
32.326,33.846
32.313,33.787
32.306,33.728
32.308,33.67
32.319,33.614
32.344,33.558
32.384,33.504
32.44,33.451
32.515,33.401
32.608,33.354
32.721,33.31
32.853,33.269
33.004,33.232
33.172,33.196
33.355,33.162
33.548,33.129
33.748,33.097
33.951,33.066
34.154,33.036
34.353,33.006
34.547,32.978
34.733,32.952
34.909,32.926
35.074,32.902
35.226,32.877
35.364,32.853
35.489,32.83
35.599,32.811
35.696,32.798
35.78,32.796
35.849,32.808
35.905,32.837
35.948,32.886
35.978,32.956
35.996,33.051
36.005,33.171
36.005,33.316
35.997,33.487
35.982,33.684
35.962,33.905
35.936,34.147
35.905,34.409
35.87,34.686
35.83,34.972
35.785,35.264
35.735,35.557
35.682,35.847
35.626,36.128
35.568,36.396
35.508,36.647
35.446,36.878
35.382,37.086
35.317,37.271
35.252,37.433
35.185,37.57
35.118,37.685
35.051,37.776
34.984,37.846
34.917,37.896
34.851,37.927
34.785,37.942
34.721,37.943
34.658,37.932
34.598,37.909
34.539,37.877
34.483,37.835
34.431,37.786
34.381,37.731
34.334,37.672
34.289,37.61
34.248,37.546
34.208,37.48
34.171,37.412
34.137,37.344
34.105,37.275
34.076,37.206
34.051,37.136
34.03,37.067
34.013,36.996
33.999,36.924
33.987,36.85
33.978,36.775
33.97,36.7
33.962,36.624
33.955,36.548
33.949,36.472
33.943,36.396
33.938,36.321
33.933,36.246
33.927,36.172
33.92,36.099
33.913,36.028
33.905,35.958
33.896,35.89
33.887,35.824
33.878,35.759
33.869,35.696
33.859,35.634
33.849,35.575
33.838,35.518
33.827,35.463
33.816,35.412
33.806,35.363
33.796,35.318
33.787,35.278
33.778,35.241
33.769,35.209
33.759,35.181
33.748,35.158
33.736,35.138
33.722,35.121
33.706,35.107
33.688,35.096
33.668,35.087
33.646,35.08
33.62,35.074
33.592,35.067
33.561,35.06
33.527,35.05
33.492,35.039
33.455,35.025
33.417,35.01
33.379,34.995
33.343,34.981
33.308,34.968
33.275,34.957
33.243,34.948
33.213,34.94
33.183,34.931
33.153,34.921
33.124,34.909
33.095,34.894
33.067,34.877
33.04,34.857
33.013,34.836
32.989,34.813
32.964,34.789
32.941,34.765
32.918,34.738
32.896,34.71
32.875,34.679
32.854,34.644
32.832,34.604
32.81,34.558
32.786,34.507
32.762,34.451
32.737,34.391
32.711,34.328
32.683,34.263
32.654,34.198
32.625,34.133
32.596,34.067
32.567,34.002
32.539,33.937
32.512,33.871
32.487,33.806
32.463,33.742
32.441,33.681
32.419,33.622
32.397,33.566
32.375,33.512
32.355,33.46
32.338,33.41
32.324,33.363
32.317,33.319
32.319,33.278
32.331,33.24
32.357,33.205
32.397,33.173
32.454,33.143
32.529,33.115
32.625,33.088
32.741,33.059
32.877,33.029
33.033,32.996
33.205,32.962
33.392,32.926
33.591,32.888
33.799,32.848
34.013,32.806
34.229,32.761
34.442,32.712
34.649,32.66
34.845,32.603
35.029,32.545
35.198,32.485
35.351,32.423
35.485,32.361
35.602,32.3
35.7,32.241
35.781,32.185
35.845,32.135
35.894,32.092
35.928,32.06
35.95,32.043
35.96,32.043
35.96,32.063
35.953,32.108
35.939,32.178
35.92,32.277
35.897,32.404
35.87,32.56
35.84,32.744
35.807,32.956
35.771,33.192
35.731,33.451
35.689,33.728
35.645,34.022
35.597,34.327
35.546,34.641
35.492,34.96
35.435,35.281
35.377,35.598
35.318,35.907
35.258,36.206
35.2,36.488
35.142,36.752
35.087,36.995
35.033,37.216
34.981,37.414
34.931,37.591
34.881,37.745
34.832,37.879
34.783,37.991
34.734,38.085
34.685,38.159
34.636,38.217
34.587,38.257
34.537,38.283
34.489,38.294
34.442,38.292
34.396,38.278
34.353,38.254
34.313,38.222
34.277,38.181
34.245,38.134
34.22,38.081
34.2,38.023
34.184,37.96
34.173,37.893
34.165,37.822
34.16,37.749
34.157,37.673
34.156,37.595
34.156,37.514
34.158,37.43
34.16,37.344
34.161,37.254
34.162,37.163
34.162,37.07
34.161,36.975
34.16,36.881
34.159,36.788
34.157,36.698
34.155,36.612
34.153,36.528
34.149,36.448
34.143,36.371
34.137,36.296
34.129,36.223
34.121,36.153
34.113,36.085
34.106,36.019
34.099,35.957
34.091,35.899
34.082,35.844
34.073,35.794
34.062,35.749
34.05,35.707
34.039,35.669
34.026,35.634
34.013,35.6
33.998,35.569
33.98,35.54
33.961,35.513
33.939,35.489
33.915,35.469
33.889,35.454
33.861,35.444
33.833,35.438
33.803,35.437
33.773,35.439
33.742,35.445
33.711,35.451
33.681,35.458
33.651,35.464
33.621,35.469
33.592,35.471
33.564,35.47
33.536,35.466
33.51,35.459
33.486,35.449
33.463,35.436
33.441,35.42
33.418,35.4
33.394,35.375
33.367,35.345
33.337,35.309
33.305,35.266
33.271,35.217
33.237,35.163
33.203,35.105
33.169,35.044
33.135,34.982
33.102,34.92
33.07,34.858
33.04,34.798
33.012,34.739
32.986,34.681
32.963,34.626
32.943,34.572
32.924,34.521
32.907,34.47
32.891,34.422
32.876,34.374
32.86,34.327
32.844,34.281
32.828,34.237
32.81,34.194
32.79,34.153
32.77,34.113
32.75,34.075
32.732,34.038
32.716,34.003
32.704,33.967
32.697,33.931
32.696,33.894
32.703,33.855
32.719,33.817
32.747,33.777
32.788,33.737
32.846,33.697
32.919,33.656
33.01,33.615
33.117,33.574
33.24,33.533
33.378,33.492
33.53,33.451
33.694,33.41
33.869,33.367
34.052,33.323
34.24,33.278
34.431,33.231
34.621,33.182
34.807,33.132
34.988,33.08
35.16,33.026
35.322,32.971
35.47,32.917
35.605,32.863
35.724,32.81
35.827,32.76
35.913,32.713
35.982,32.669
36.035,32.628
36.072,32.591
36.095,32.556
36.105,32.525
36.104,32.499
36.093,32.479
36.072,32.467
36.044,32.466
36.009,32.478
35.969,32.506
35.926,32.552
35.881,32.619
35.836,32.707
35.792,32.819
35.748,32.956
35.705,33.119
35.662,33.308
35.618,33.523
35.574,33.761
35.53,34.021
35.485,34.298
35.44,34.59
35.394,34.893
35.348,35.203
35.301,35.515
35.253,35.825
35.204,36.129
35.156,36.421
35.109,36.699
35.063,36.96
35.018,37.202
34.973,37.424
34.927,37.627
34.881,37.809
34.834,37.971
34.787,38.114
34.742,38.238
34.699,38.343
34.659,38.431
34.622,38.501
34.588,38.554
34.557,38.593
34.527,38.616
34.501,38.627
34.479,38.626
34.459,38.615
34.443,38.593
34.43,38.563
34.42,38.525
34.413,38.48
34.407,38.428
34.403,38.371
34.4,38.307
34.398,38.237
34.397,38.16
34.397,38.078
34.398,37.99
34.399,37.899
34.401,37.805
34.401,37.708
34.401,37.611
34.4,37.513
34.397,37.415
34.391,37.318
34.384,37.223
34.373,37.131
34.36,37.043
34.345,36.958
34.327,36.876
34.308,36.796
34.29,36.72
34.273,36.646
34.258,36.575
34.244,36.507
34.231,36.443
34.219,36.381
34.208,36.321
34.197,36.263
34.186,36.209
34.176,36.158
34.164,36.11
34.151,36.066
34.137,36.025
34.12,35.987
34.102,35.95
34.081,35.916
34.059,35.884
34.035,35.855
34.011,35.83
33.985,35.81
33.958,35.795
33.93,35.786
33.902,35.78
33.874,35.78
33.847,35.784
33.822,35.793
33.797,35.805
33.773,35.821
33.749,35.839
33.724,35.859
33.698,35.88
33.672,35.901
33.645,35.92
33.617,35.936
33.589,35.949
33.561,35.957
33.533,35.96
33.504,35.957
33.475,35.949
33.446,35.934
33.419,35.914
33.395,35.889
33.372,35.858
33.353,35.823
33.336,35.783
33.322,35.74
33.31,35.693
33.299,35.643
33.289,35.591
33.28,35.539
33.271,35.486
33.261,35.433
33.249,35.381
33.236,35.329
33.22,35.277
33.201,35.226
33.179,35.175
33.155,35.123
33.129,35.072
33.102,35.02
33.075,34.967
33.049,34.916
33.025,34.865
33.006,34.815
32.992,34.766
32.988,34.718
32.994,34.67
33.014,34.622
33.048,34.572
33.098,34.521
33.165,34.469
33.25,34.417
33.351,34.366
33.468,34.318
33.6,34.273
33.744,34.231
33.897,34.193
34.058,34.156
34.226,34.12
34.397,34.085
34.57,34.05
34.742,34.015
34.911,33.981
35.074,33.948
35.23,33.917
35.376,33.886
35.511,33.856
35.635,33.827
35.747,33.798
35.846,33.768
35.93,33.738
36,33.705
36.056,33.67
36.097,33.633
36.123,33.594
36.137,33.551
36.14,33.504
36.132,33.455
36.116,33.403
36.091,33.351
36.06,33.3
36.023,33.254
35.981,33.217
35.938,33.191
35.894,33.18
35.85,33.188
35.807,33.218
35.767,33.274
35.729,33.357
35.693,33.47
35.659,33.614
35.625,33.787
35.591,33.988
35.557,34.216
35.522,34.466
35.486,34.738
35.448,35.025
35.407,35.323
35.363,35.629
35.315,35.937
35.264,36.243
35.21,36.542
35.155,36.831
35.1,37.106
35.045,37.363
34.993,37.6
34.943,37.817
34.896,38.011
34.853,38.183
34.813,38.332
34.777,38.459
34.747,38.564
34.723,38.648
34.702,38.713
34.686,38.759
34.673,38.788
34.662,38.802
34.653,38.802
34.646,38.79
34.641,38.767
34.637,38.734
34.635,38.691
34.634,38.64
34.634,38.581
34.634,38.515
34.635,38.444
34.636,38.368
34.638,38.289
34.641,38.208
34.646,38.124
34.651,38.041
34.655,37.957
34.66,37.873
34.664,37.789
34.668,37.703
34.671,37.617
34.673,37.529
34.675,37.441
34.676,37.353
34.676,37.266
34.676,37.181
34.674,37.097
34.67,37.013
34.666,36.93
34.66,36.848
34.653,36.765
34.646,36.681
34.638,36.597
34.629,36.512
34.619,36.429
34.608,36.346
34.596,36.266
34.583,36.189
34.567,36.118
34.548,36.054
34.528,35.996
34.504,35.946
34.479,35.901
34.452,35.862
34.424,35.827
34.395,35.794
34.366,35.764
34.337,35.736
34.308,35.711
34.28,35.688
34.253,35.667
34.226,35.649
34.2,35.632
34.176,35.618
34.153,35.603
34.132,35.589
34.113,35.575
34.095,35.559
34.079,35.54
34.063,35.52
34.046,35.497
34.029,35.473
34.013,35.449
33.995,35.425
33.978,35.4
33.96,35.376
33.941,35.351
33.92,35.325
33.899,35.299
33.878,35.271
33.857,35.242
33.837,35.211
33.817,35.18
33.799,35.148
33.78,35.116
33.759,35.085
33.738,35.055
33.715,35.024
33.692,34.995
33.669,34.965
33.646,34.934
33.622,34.902
33.598,34.868
33.575,34.831
33.552,34.792
33.531,34.75
33.514,34.706
33.504,34.66
33.501,34.61
33.508,34.558
33.525,34.504
33.555,34.446
33.599,34.384
33.657,34.319
33.731,34.25
33.821,34.178
33.926,34.103
34.047,34.027
34.182,33.95
34.329,33.874
34.485,33.799
34.647,33.727
34.815,33.657
34.984,33.59
35.153,33.527
35.317,33.467
35.476,33.409
35.626,33.353
35.766,33.297
35.895,33.243
36.013,33.189
36.118,33.135
36.21,33.081
36.29,33.027
36.357,32.974
36.413,32.922
36.457,32.872
36.491,32.824
36.515,32.779
36.529,32.737
36.534,32.697
36.531,32.659
36.522,32.62
36.506,32.581
36.485,32.54
36.458,32.498
36.426,32.454
36.39,32.411
36.349,32.369
36.304,32.33
36.258,32.299
36.212,32.276
36.166,32.265
36.12,32.27
36.075,32.294
36.029,32.34
35.984,32.412
35.94,32.512
35.895,32.642
35.851,32.803
35.807,32.993
35.763,33.212
35.717,33.458
35.67,33.727
35.622,34.017
35.572,34.324
35.522,34.644
35.471,34.972
35.421,35.305
35.372,35.637
35.325,35.964
35.278,36.282
35.233,36.586
35.19,36.875
35.149,37.144
35.112,37.391
35.079,37.614
35.05,37.813
35.025,37.985
35.004,38.131
34.986,38.25
34.971,38.344
34.958,38.414
34.947,38.462
34.939,38.491
34.932,38.504
34.926,38.503
34.922,38.491
34.918,38.472
34.915,38.446
34.911,38.415
34.907,38.38
34.903,38.341
34.9,38.298
34.898,38.252
34.898,38.204
34.899,38.153
34.901,38.1
34.903,38.046
34.906,37.991
34.907,37.935
34.907,37.878
34.907,37.819
34.904,37.757
34.899,37.691
34.892,37.621
34.882,37.547
34.87,37.468
34.854,37.385
34.838,37.3
34.819,37.212
34.8,37.122
34.78,37.03
34.759,36.938
34.739,36.845
34.719,36.755
34.699,36.667
34.68,36.582
34.662,36.5
34.645,36.423
34.628,36.351
34.612,36.285
34.595,36.225
34.576,36.171
34.556,36.123
34.535,36.08
34.513,36.04
34.489,36.005
34.466,35.973
34.443,35.944
34.419,35.918
34.396,35.894
34.373,35.871
34.35,35.849
34.328,35.827
34.305,35.806
34.28,35.786
34.254,35.768
34.225,35.752
34.196,35.737
34.166,35.725
34.135,35.714
34.105,35.706
34.076,35.699
34.048,35.694
34.021,35.69
33.995,35.688
33.97,35.686
33.944,35.684
33.92,35.683
33.897,35.682
33.874,35.68
33.851,35.677
33.827,35.671
33.803,35.663
33.779,35.651
33.757,35.635
33.737,35.615
33.717,35.591
33.698,35.564
33.68,35.533
33.661,35.499
33.642,35.463
33.622,35.425
33.602,35.384
33.583,35.342
33.566,35.297
33.552,35.252
33.543,35.206
33.541,35.161
33.547,35.116
33.565,35.072
33.596,35.027
33.643,34.982
33.708,34.937
33.794,34.889
33.9,34.84
34.027,34.788
34.172,34.733
34.334,34.675
34.51,34.613
34.696,34.548
34.889,34.479
35.087,34.408
35.287,34.335
35.485,34.261
35.678,34.186
35.861,34.111
36.033,34.036
36.19,33.962
36.332,33.888
36.457,33.815
36.566,33.742
36.659,33.673
36.736,33.607
36.797,33.546
36.845,33.491
36.88,33.441
36.904,33.397
36.917,33.356
36.922,33.32
36.92,33.287
36.911,33.257
36.897,33.229
36.878,33.203
36.854,33.177
36.826,33.15
36.794,33.121
36.758,33.088
36.719,33.053
36.677,33.017
36.632,32.979
36.585,32.943
36.536,32.907
36.486,32.875
36.436,32.848
36.384,32.831
36.332,32.826
36.279,32.837
36.228,32.867
36.177,32.92
36.127,32.996
36.079,33.1
36.03,33.231
35.981,33.392
35.932,33.582
35.883,33.802
35.833,34.05
35.783,34.322
35.734,34.615
35.686,34.926
35.64,35.247
35.595,35.574
35.554,35.901
35.516,36.222
35.481,36.533
35.449,36.83
35.421,37.108
35.397,37.364
35.375,37.596
35.357,37.803
35.341,37.984
35.326,38.139
35.313,38.269
35.3,38.376
35.287,38.46
35.274,38.525
35.262,38.571
35.251,38.601
35.242,38.617
35.234,38.618
35.228,38.608
35.223,38.586
35.219,38.555
35.216,38.517
35.215,38.474
35.214,38.426
35.215,38.375
35.216,38.321
35.217,38.265
35.218,38.205
35.216,38.142
35.214,38.075
35.209,38.004
35.203,37.93
35.193,37.854
35.182,37.775
35.168,37.694
35.153,37.613
35.135,37.533
35.116,37.454
35.096,37.375
35.075,37.297
35.054,37.217
35.033,37.136
35.012,37.053
34.991,36.969
34.969,36.884
34.948,36.798
34.926,36.712
34.903,36.627
34.879,36.545
34.854,36.466
34.827,36.392
34.799,36.323
34.77,36.26
34.74,36.203
34.71,36.151
34.68,36.105
34.651,36.063
34.624,36.027
34.597,35.997
34.573,35.972
34.55,35.952
34.528,35.936
34.507,35.925
34.487,35.917
34.466,35.912
34.445,35.908
34.421,35.906
34.394,35.903
34.364,35.899
34.33,35.894
34.291,35.887
34.249,35.878
34.203,35.867
34.155,35.855
34.106,35.841
34.057,35.826
34.008,35.809
33.961,35.789
33.916,35.768
33.874,35.746
33.838,35.723
33.806,35.698
33.779,35.672
33.756,35.645
33.736,35.617
33.718,35.588
33.702,35.558
33.687,35.527
33.673,35.495
33.66,35.462
33.648,35.426
33.637,35.387
33.626,35.346
33.616,35.301
33.607,35.255
33.601,35.206
33.599,35.157
33.602,35.107
33.613,35.058
33.635,35.01
33.669,34.963
33.716,34.916
33.779,34.869
33.856,34.822
33.949,34.776
34.057,34.731
34.181,34.687
34.318,34.645
34.468,34.605
34.63,34.568
34.8,34.532
34.977,34.499
35.159,34.466
35.343,34.432
35.529,34.397
35.712,34.361
35.892,34.322
36.065,34.281
36.23,34.239
36.384,34.195
36.528,34.151
36.66,34.108
36.78,34.066
36.887,34.025
36.98,33.985
37.06,33.945
37.126,33.903
37.177,33.86
37.213,33.814
37.234,33.766
37.241,33.717
37.235,33.667
37.217,33.616
37.19,33.564
37.155,33.512
37.114,33.46
37.066,33.409
37.015,33.357
36.96,33.305
36.905,33.254
36.85,33.203
36.797,33.154
36.745,33.106
36.695,33.062
36.646,33.023
36.599,32.992
36.552,32.971
36.506,32.962
36.46,32.969
36.414,32.995
36.367,33.044
36.32,33.119
36.273,33.222
36.225,33.355
36.175,33.52
36.124,33.714
36.072,33.938
36.018,34.188
35.963,34.461
35.908,34.754
35.854,35.063
35.802,35.385
35.753,35.714
35.709,36.045
35.668,36.375
35.632,36.697
35.601,37.008
35.575,37.303
35.555,37.579
35.541,37.834
35.533,38.064
35.528,38.269
35.527,38.449
35.528,38.602
35.532,38.73
35.536,38.833
35.541,38.915
35.546,38.975
35.549,39.017
35.551,39.042
35.55,39.051
35.545,39.047
35.538,39.032
35.528,39.007
35.516,38.974
35.503,38.932
35.489,38.883
35.475,38.827
35.462,38.765
35.45,38.699
35.441,38.63
35.433,38.559
35.429,38.487
35.427,38.415
35.426,38.343
35.427,38.272
35.428,38.199
35.429,38.125
35.429,38.049
35.427,37.969
35.423,37.885
35.416,37.798
35.406,37.707
35.393,37.614
35.377,37.519
35.358,37.424
35.336,37.33
35.312,37.237
35.285,37.147
35.257,37.059
35.228,36.975
35.197,36.895
35.166,36.819
35.134,36.747
35.102,36.678
35.071,36.614
35.042,36.555
35.014,36.499
34.988,36.448
34.965,36.401
34.943,36.358
34.924,36.318
34.905,36.284
34.888,36.254
34.87,36.229
34.852,36.21
34.834,36.195
34.817,36.185
34.799,36.177
34.781,36.172
34.761,36.17
34.74,36.169
34.718,36.17
34.694,36.172
34.668,36.174
34.641,36.176
34.612,36.177
34.582,36.178
34.551,36.178
34.52,36.178
34.489,36.176
34.457,36.173
34.426,36.168
34.397,36.16
34.369,36.148
34.344,36.132
34.32,36.113
34.298,36.089
34.277,36.062
34.257,36.032
34.238,35.998
34.22,35.961
34.202,35.923
34.186,35.882
34.171,35.841
34.157,35.798
34.145,35.754
34.136,35.709
34.131,35.664
34.133,35.618
34.144,35.571
34.168,35.525
34.207,35.478
34.262,35.433
34.334,35.388
34.423,35.345
34.529,35.303
34.652,35.262
34.791,35.222
34.945,35.184
35.111,35.146
35.288,35.109
35.473,35.072
35.665,35.035
35.859,34.995
36.054,34.954
36.247,34.912
36.435,34.868
36.616,34.824
36.789,34.779
36.95,34.734
37.1,34.687
37.234,34.638
37.353,34.588
37.456,34.535
37.543,34.479
37.613,34.42
37.667,34.359
37.705,34.295
37.727,34.229
37.733,34.163
37.727,34.097
37.709,34.032
37.683,33.97
37.649,33.911
37.608,33.856
37.56,33.803
37.507,33.751
37.451,33.7
37.394,33.649
37.337,33.599
37.279,33.55
37.223,33.506
37.167,33.467
37.111,33.437
37.057,33.417
37.002,33.412
36.947,33.423
36.892,33.452
36.835,33.503
36.778,33.577
36.721,33.677
36.664,33.803
36.607,33.958
36.552,34.141
36.498,34.353
36.446,34.591
36.396,34.853
36.349,35.135
36.304,35.435
36.262,35.746
36.223,36.064
36.184,36.382
36.147,36.696
36.109,37.001
36.07,37.292
36.031,37.566
35.991,37.82
35.951,38.051
35.913,38.259
35.877,38.444
35.845,38.605
35.815,38.743
35.79,38.858
35.77,38.951
35.755,39.024
35.745,39.077
35.739,39.113
35.737,39.134
35.738,39.141
35.741,39.136
35.746,39.121
35.753,39.096
35.759,39.062
35.765,39.019
35.77,38.969
35.773,38.912
35.774,38.849
35.773,38.781
35.77,38.709
35.766,38.635
35.759,38.56
35.751,38.482
35.742,38.402
35.732,38.319
35.722,38.233
35.712,38.144
35.701,38.051
35.688,37.955
35.674,37.855
35.658,37.751
35.641,37.645
35.622,37.535
35.602,37.424
35.581,37.31
35.559,37.196
35.536,37.083
35.512,36.972
35.487,36.864
35.461,36.761
35.435,36.663
35.409,36.574
35.383,36.492
35.355,36.419
35.325,36.355
35.293,36.298
35.259,36.246
35.225,36.2
35.192,36.159
35.159,36.121
35.126,36.087
35.094,36.057
35.062,36.032
35.03,36.011
34.999,35.993
34.968,35.979
34.937,35.967
34.908,35.956
34.879,35.946
34.85,35.936
34.824,35.925
34.798,35.913
34.774,35.9
34.75,35.887
34.727,35.872
34.704,35.858
34.68,35.844
34.656,35.831
34.63,35.817
34.601,35.803
34.572,35.787
34.54,35.769
34.506,35.747
34.471,35.722
34.434,35.693
34.397,35.66
34.361,35.625
34.326,35.586
34.293,35.547
34.261,35.507
34.23,35.467
34.201,35.425
34.174,35.383
34.15,35.338
34.13,35.289
34.112,35.237
34.098,35.182
34.086,35.124
34.077,35.065
34.072,35.006
34.072,34.948
34.081,34.893
34.1,34.839
34.133,34.789
34.18,34.742
34.244,34.698
34.325,34.656
34.425,34.615
34.543,34.575
34.682,34.535
34.84,34.495
35.016,34.453
35.208,34.409
35.412,34.363
35.625,34.313
35.844,34.26
36.064,34.205
36.281,34.149
36.492,34.093
36.693,34.036
36.882,33.98
37.057,33.925
37.217,33.87
37.361,33.817
37.488,33.763
37.598,33.709
37.691,33.654
37.768,33.596
37.829,33.537
37.876,33.476
37.91,33.412
37.931,33.348
37.939,33.285
37.935,33.221
37.92,33.157
37.896,33.092
37.862,33.027
37.82,32.96
37.771,32.892
37.717,32.825
37.659,32.758
37.601,32.694
37.543,32.632
37.486,32.574
37.431,32.521
37.379,32.474
37.327,32.435
37.277,32.406
37.228,32.39
37.18,32.39
37.131,32.41
37.081,32.451
37.03,32.517
36.978,32.609
36.924,32.728
36.868,32.873
36.81,33.045
36.751,33.244
36.69,33.469
36.627,33.718
36.565,33.99
36.503,34.281
36.442,34.587
36.382,34.905
36.325,35.229
36.271,35.553
36.219,35.874
36.172,36.187
36.129,36.487
36.091,36.77
36.059,37.035
36.032,37.278
36.01,37.498
35.993,37.695
35.98,37.868
35.971,38.018
35.964,38.146
35.959,38.252
35.956,38.34
35.954,38.409
35.953,38.462
35.951,38.498
35.948,38.518
35.943,38.523
35.937,38.513
35.929,38.49
35.918,38.455
35.907,38.409
35.895,38.354
35.883,38.293
35.871,38.225
35.862,38.152
35.853,38.076
35.844,37.997
35.836,37.917
35.829,37.837
35.822,37.756
35.816,37.673
35.809,37.59
35.801,37.505
35.791,37.419
35.777,37.333
35.76,37.246
35.74,37.159
35.718,37.073
35.693,36.988
35.666,36.904
35.638,36.821
35.607,36.738
35.574,36.656
35.54,36.573
35.503,36.491
35.466,36.407
35.428,36.323
35.391,36.238
35.355,36.153
35.32,36.069
35.287,35.986
35.255,35.907
35.223,35.83
35.192,35.756
35.162,35.685
35.132,35.62
35.102,35.56
35.071,35.507
35.041,35.461
35.01,35.423
34.977,35.392
34.944,35.37
34.908,35.356
34.871,35.35
34.834,35.352
34.798,35.362
34.763,35.377
34.729,35.395
34.697,35.416
34.666,35.438
34.636,35.459
34.606,35.479
34.576,35.497
34.548,35.513
34.52,35.526
34.494,35.535
34.468,35.541
34.443,35.541
34.417,35.537
34.39,35.529
34.363,35.517
34.336,35.501
34.307,35.482
34.278,35.459
34.25,35.434
34.223,35.407
34.196,35.377
34.17,35.346
34.145,35.314
34.122,35.28
34.101,35.244
34.08,35.206
34.062,35.168
34.046,35.128
34.035,35.088
34.029,35.047
34.031,35.006
34.043,34.963
34.066,34.918
34.103,34.869
34.156,34.818
34.227,34.762
34.315,34.704
34.423,34.643
34.55,34.581
34.696,34.517
34.861,34.452
35.042,34.386
35.239,34.318
35.448,34.25
35.666,34.181
35.889,34.113
36.111,34.045
36.331,33.98
36.543,33.917
36.743,33.858
36.93,33.805
37.101,33.758
37.254,33.718
37.388,33.684
37.502,33.656
37.597,33.633
37.673,33.613
37.733,33.595
37.776,33.576
37.806,33.556
37.824,33.536
37.83,33.513
37.826,33.487
37.813,33.459
37.79,33.428
37.759,33.394
37.719,33.358
37.673,33.317
37.62,33.274
37.562,33.229
37.501,33.182
37.437,33.135
37.372,33.089
37.306,33.044
37.24,33.003
37.174,32.964
37.11,32.931
37.048,32.904
36.989,32.887
36.933,32.884
36.88,32.898
36.829,32.932
36.778,32.989
36.728,33.072
36.679,33.183
36.63,33.322
36.581,33.491
36.532,33.688
36.482,33.914
36.431,34.166
36.379,34.44
36.325,34.734
36.271,35.042
36.215,35.361
36.159,35.685
36.102,36.008
36.047,36.326
35.993,36.633
35.942,36.925
35.895,37.198
35.851,37.45
35.812,37.68
35.777,37.887
35.747,38.07
35.723,38.229
35.705,38.364
35.692,38.476
35.683,38.563
35.679,38.629
35.677,38.673
35.678,38.699
35.68,38.707
35.683,38.7
35.687,38.681
35.69,38.651
35.692,38.613
35.692,38.568
35.69,38.517
35.684,38.462
35.673,38.403
35.659,38.341
35.64,38.275
35.619,38.207
35.597,38.135
35.574,38.061
35.553,37.984
35.533,37.905
35.514,37.823
35.497,37.74
35.482,37.656
35.469,37.572
35.457,37.488
35.446,37.404
35.436,37.321
35.425,37.238
35.41,37.155
35.392,37.073
35.369,36.991
35.34,36.911
35.305,36.831
35.266,36.751
35.224,36.672
35.178,36.595
35.13,36.52
35.08,36.449
35.03,36.382
34.979,36.32
34.929,36.264
34.88,36.212
34.834,36.165
34.791,36.123
34.751,36.085
34.714,36.051
34.682,36.021
34.652,35.994
34.625,35.972
34.601,35.952
34.577,35.937
34.554,35.926
34.53,35.919
34.505,35.917
34.477,35.919
34.448,35.923
34.416,35.928
34.383,35.933
34.348,35.936
34.313,35.938
34.279,35.938
34.247,35.937
34.216,35.933
34.188,35.927
34.16,35.919
34.133,35.907
34.108,35.892
34.084,35.875
34.061,35.853
34.039,35.829
34.018,35.801
33.997,35.77
33.976,35.736
33.954,35.699
33.93,35.659
33.905,35.616
33.877,35.569
33.849,35.52
33.82,35.467
33.791,35.411
33.762,35.352
33.734,35.293
33.709,35.232
33.685,35.173
33.665,35.115
33.647,35.059
33.635,35.004
33.627,34.951
33.625,34.9
33.63,34.85
33.645,34.803
33.671,34.759
33.711,34.717
33.765,34.677
33.837,34.638
33.926,34.6
34.032,34.563
34.157,34.524
34.299,34.484
34.457,34.442
34.629,34.399
34.815,34.355
35.01,34.31
35.212,34.264
35.419,34.219
35.626,34.174
35.831,34.13
36.029,34.088
36.218,34.047
36.395,34.006
36.556,33.964
36.703,33.921
36.833,33.876
36.947,33.828
37.043,33.777
37.12,33.723
37.177,33.668
37.216,33.611
37.238,33.552
37.243,33.491
37.234,33.429
37.212,33.364
37.179,33.299
37.135,33.232
37.083,33.165
37.025,33.1
36.963,33.036
36.899,32.976
36.834,32.92
36.769,32.871
36.705,32.831
36.642,32.803
36.58,32.791
36.519,32.797
36.459,32.825
36.399,32.877
36.34,32.957
36.281,33.064
36.224,33.201
36.167,33.365
36.111,33.557
36.054,33.776
35.998,34.019
35.942,34.283
35.885,34.566
35.829,34.866
35.773,35.177
35.718,35.495
35.663,35.817
35.609,36.137
35.556,36.452
35.505,36.755
35.455,37.044
35.406,37.314
35.36,37.562
35.316,37.789
35.276,37.991
35.238,38.171
35.204,38.327
35.174,38.461
35.148,38.572
35.127,38.663
35.113,38.735
35.104,38.789
35.102,38.827
35.104,38.849
35.112,38.856
35.124,38.85
35.139,38.831
35.156,38.798
35.175,38.755
35.194,38.7
35.213,38.636
35.23,38.564
35.245,38.486
35.257,38.403
35.266,38.316
35.271,38.226
35.272,38.135
35.27,38.044
35.264,37.952
35.254,37.859
35.242,37.765
35.228,37.67
35.212,37.574
35.195,37.478
35.177,37.383
35.157,37.288
35.137,37.196
35.117,37.106
35.098,37.019
35.079,36.935
35.059,36.854
35.037,36.774
35.012,36.695
34.983,36.616
34.952,36.538
34.919,36.46
34.883,36.383
34.846,36.306
34.808,36.23
34.77,36.154
34.731,36.079
34.691,36.005
34.653,35.931
34.615,35.86
34.58,35.791
34.548,35.724
34.518,35.66
34.49,35.598
34.463,35.539
34.437,35.483
34.41,35.432
34.384,35.387
34.357,35.349
34.329,35.318
34.3,35.296
34.269,35.281
34.235,35.272
34.2,35.269
34.162,35.271
34.123,35.275
34.083,35.282
34.043,35.29
34.004,35.299
33.966,35.31
33.931,35.322
33.898,35.334
33.868,35.345
33.841,35.356
33.818,35.365
33.797,35.37
33.778,35.373
33.761,35.372
33.745,35.367
33.73,35.359
33.716,35.347
33.701,35.334
33.685,35.319
33.667,35.302
33.648,35.283
33.626,35.259
33.602,35.232
33.577,35.2
33.549,35.162
33.519,35.119
33.488,35.072
33.457,35.021
33.428,34.967
33.402,34.911
33.381,34.855
33.368,34.799
33.365,34.744
33.373,34.69
33.393,34.636
33.429,34.581
33.481,34.527
33.549,34.471
33.636,34.414
33.739,34.358
33.859,34.301
33.992,34.244
34.138,34.188
34.295,34.132
34.462,34.075
34.635,34.018
34.812,33.959
34.992,33.899
35.172,33.837
35.347,33.774
35.517,33.712
35.678,33.651
35.829,33.592
35.969,33.533
36.095,33.476
36.208,33.421
36.306,33.369
36.389,33.32
36.458,33.275
36.511,33.235
36.551,33.198
36.576,33.165
36.589,33.133
36.591,33.103
36.583,33.073
36.567,33.042
36.543,33.01
36.512,32.977
36.475,32.944
36.432,32.91
36.385,32.878
36.337,32.848
36.287,32.822
36.237,32.802
36.186,32.79
36.136,32.789
36.084,32.802
36.032,32.834
35.98,32.888
35.928,32.966
35.876,33.072
35.826,33.206
35.776,33.37
35.728,33.563
35.681,33.785
35.635,34.032
35.591,34.303
35.548,34.592
35.507,34.896
35.466,35.209
35.426,35.528
35.385,35.847
35.344,36.162
35.302,36.468
35.259,36.763
35.216,37.043
35.172,37.305
35.128,37.548
35.085,37.767
35.044,37.962
35.005,38.131
34.969,38.273
34.935,38.388
34.904,38.479
34.876,38.547
34.852,38.594
34.832,38.623
34.816,38.635
34.805,38.632
34.797,38.615
34.791,38.588
34.786,38.552
34.784,38.508
34.782,38.459
34.781,38.405
34.781,38.345
34.781,38.281
34.781,38.212
34.78,38.14
34.778,38.064
34.775,37.985
34.77,37.902
34.765,37.818
34.76,37.733
34.754,37.647
34.747,37.563
34.739,37.48
34.73,37.399
34.719,37.32
34.708,37.243
34.696,37.167
34.684,37.091
34.671,37.016
34.658,36.941
34.645,36.866
34.631,36.792
34.616,36.718
34.6,36.645
34.584,36.572
34.567,36.501
34.549,36.43
34.53,36.361
34.51,36.294
34.488,36.228
34.465,36.165
34.441,36.107
34.415,36.052
34.389,36.003
34.361,35.959
34.333,35.921
34.305,35.887
34.276,35.859
34.246,35.835
34.216,35.816
34.185,35.8
34.153,35.788
34.121,35.779
34.091,35.771
34.061,35.766
34.034,35.762
34.008,35.761
33.981,35.761
33.955,35.762
33.928,35.762
33.901,35.762
33.873,35.76
33.845,35.754
33.817,35.744
33.79,35.731
33.762,35.714
33.735,35.693
33.707,35.671
33.68,35.646
33.654,35.618
33.63,35.589
33.608,35.557
33.586,35.522
33.566,35.484
33.546,35.444
33.526,35.402
33.508,35.358
33.49,35.313
33.475,35.267
33.461,35.221
33.449,35.176
33.439,35.132
33.428,35.091
33.417,35.051
33.404,35.012
33.39,34.973
33.375,34.935
33.361,34.896
33.347,34.858
33.337,34.818
33.33,34.778
33.329,34.737
33.335,34.696
33.352,34.654
33.379,34.612
33.42,34.57
33.476,34.527
33.547,34.485
33.634,34.443
33.738,34.4
33.856,34.356
33.989,34.312
34.134,34.268
34.29,34.224
34.454,34.18
34.625,34.137
34.798,34.094
34.97,34.051
35.139,34.009
35.301,33.965
35.456,33.918
35.601,33.87
35.736,33.818
35.86,33.763
35.971,33.706
36.07,33.647
36.156,33.587
36.229,33.526
36.288,33.463
36.335,33.4
36.369,33.336
36.393,33.274
36.405,33.213
36.408,33.154
36.402,33.098
36.387,33.043
36.363,32.99
36.331,32.94
36.293,32.894
36.25,32.853
36.204,32.822
36.156,32.801
