Trial 1:0back,Trial 6:0back
35.881,-0.554
35.898,-5.615
35.915,-10.951
35.93,-16.409
35.945,-21.831
35.96,-27.066
35.974,-31.974
35.987,-36.439
36.001,-40.373
36.014,-43.715
36.025,-46.437
36.035,-48.538
36.042,-50.042
36.048,-50.997
36.051,-51.463
36.053,-51.515
36.055,-51.232
36.055,-50.69
36.053,-49.945
36.051,-49.036
36.046,-47.981
36.038,-46.785
36.029,-45.447
36.018,-43.965
36.006,-42.343
35.993,-40.592
35.98,-38.738
35.967,-36.825
35.954,-34.902
35.941,-33.018
35.927,-31.219
35.91,-29.534
35.892,-27.975
35.873,-26.533
35.852,-25.18
35.831,-23.867
35.809,-22.534
35.787,-21.116
35.765,-19.552
35.742,-17.785
35.719,-15.763
35.697,-13.442
35.676,-10.779
35.656,-7.738
35.638,-4.29
35.621,-0.419
35.604,3.879
35.587,8.594
35.569,13.697
35.551,19.139
35.532,24.861
35.514,30.789
35.495,36.844
35.477,42.942
35.459,48.997
35.443,54.926
35.427,60.651
35.411,66.105
35.396,71.234
35.381,75.996
35.366,80.369
35.352,84.343
35.338,87.927
35.324,91.145
35.31,94.033
35.295,96.634
35.278,98.998
35.261,101.174
35.243,103.209
35.225,105.144
35.207,107.014
35.19,108.845
35.174,110.655
35.157,112.448
35.141,114.222
35.125,115.964
35.11,117.654
35.096,119.268
35.084,120.78
35.074,122.168
35.066,123.415
35.059,124.508
35.053,125.442
35.049,126.218
35.044,126.842
35.04,127.325
35.037,127.68
35.035,127.923
35.034,128.07
35.034,128.139
35.034,128.144
35.035,128.099
35.035,128.013
35.036,127.894
35.036,127.746
35.037,127.57
35.038,127.366
35.039,127.127
35.04,126.847
35.04,126.515
35.038,126.122
35.035,125.659
35.03,125.121
35.023,124.506
35.015,123.819
35.005,123.072
34.994,122.282
34.982,121.467
34.97,120.646
34.957,119.832
34.945,119.025
34.932,118.211
34.919,117.37
34.908,116.479
34.897,115.516
34.886,114.464
34.876,113.312
34.865,112.053
34.855,110.691
34.844,109.238
34.833,107.71
34.822,106.131
34.812,104.527
34.802,102.928
34.794,101.362
34.787,99.854
34.781,98.426
34.776,97.096
34.773,95.875
34.772,94.77
34.772,93.783
34.775,92.909
34.781,92.141
34.79,91.469
34.803,90.882
34.822,90.365
34.845,89.906
34.876,89.492
34.914,89.109
34.96,88.745
35.015,88.391
35.08,88.037
35.154,87.677
35.237,87.304
35.329,86.916
35.428,86.509
35.535,86.083
35.647,85.636
35.762,85.17
35.879,84.687
35.994,84.189
36.105,83.679
36.211,83.161
36.309,82.641
36.4,82.12
36.481,81.604
36.553,81.096
36.616,80.597
36.669,80.112
36.713,79.641
36.747,79.186
36.772,78.745
36.787,78.319
36.794,77.905
36.793,77.503
36.784,77.11
36.771,76.724
36.752,76.342
36.731,75.963
36.706,75.583
36.678,75.202
36.648,74.819
36.615,74.434
36.581,74.045
36.547,73.654
36.515,73.259
36.484,72.863
36.455,72.465
36.427,72.068
36.398,71.672
36.37,71.283
36.341,70.903
36.312,70.538
36.283,70.189
36.254,69.857
36.225,69.543
36.197,69.243
36.168,68.952
36.139,68.664
36.109,68.372
36.079,68.067
36.049,67.743
36.019,67.394
35.99,67.016
35.961,66.607
35.932,66.166
35.903,65.695
35.874,65.196
35.844,64.674
35.814,64.134
35.785,63.583
35.757,63.028
35.732,62.474
35.711,61.929
35.693,61.398
35.678,60.887
35.667,60.398
35.659,59.936
35.654,59.502
35.651,59.097
35.651,58.721
35.655,58.375
35.661,58.059
35.671,57.771
35.682,57.511
35.695,57.279
35.71,57.071
35.725,56.887
35.742,56.724
35.761,56.581
35.782,56.456
35.805,56.346
35.829,56.251
35.852,56.168
35.874,56.095
35.894,56.029
35.911,55.969
35.925,55.91
35.936,55.851
35.945,55.787
35.952,55.718
35.958,55.64
35.963,55.553
35.965,55.455
35.966,55.347
35.964,55.228
35.961,55.1
35.957,54.964
35.952,54.824
35.946,54.682
35.939,54.543
35.931,54.41
35.922,54.29
35.91,54.185
35.897,54.099
35.882,54.034
35.866,53.991
35.848,53.972
35.83,53.975
35.812,54
35.793,54.044
35.775,54.104
35.756,54.181
35.738,54.275
35.721,54.386
35.704,54.519
35.687,54.674
35.67,54.855
35.654,55.06
35.636,55.29
35.618,55.54
35.599,55.804
35.58,56.077
35.561,56.351
35.541,56.619
35.522,56.875
35.501,57.111
35.48,57.32
35.458,57.494
35.436,57.629
35.415,57.721
35.394,57.766
35.374,57.761
35.355,57.706
35.335,57.6
35.316,57.446
35.295,57.248
35.274,57.009
35.252,56.734
35.231,56.43
35.212,56.101
35.194,55.755
35.178,55.399
35.165,55.037
35.153,54.676
35.142,54.32
35.133,53.973
35.124,53.639
35.116,53.32
35.11,53.019
35.104,52.739
35.098,52.479
35.093,52.24
35.087,52.019
35.08,51.811
35.073,51.61
35.065,51.404
35.058,51.182
35.051,50.923
35.045,50.602
35.039,50.183
35.035,49.624
35.031,48.876
35.027,47.886
35.023,46.602
35.018,44.978
35.014,42.977
35.009,40.579
35.005,37.779
35.002,34.595
34.998,31.063
34.995,27.241
34.991,23.205
34.988,19.047
34.985,14.866
34.982,10.766
34.98,6.85
34.978,3.216
34.975,-0.049
34.973,-2.87
34.97,-5.188
34.966,-6.961
34.963,-8.161
34.959,-8.779
34.955,-8.818
34.951,-8.295
34.946,-7.239
34.941,-5.684
34.935,-3.672
34.928,-1.245
34.919,1.549
34.909,4.663
34.9,8.052
34.89,11.669
34.882,15.47
34.875,19.412
34.87,23.456
34.867,27.566
34.865,31.71
34.865,35.859
34.867,39.99
34.872,44.081
34.883,48.117
34.9,52.084
34.923,55.967
34.954,59.755
34.992,63.433
35.037,66.985
35.089,70.394
35.149,73.642
35.217,76.708
35.293,79.575
35.376,82.224
35.465,84.641
35.558,86.817
35.654,88.742
35.752,90.414
35.849,91.833
35.945,93.001
36.038,93.926
36.128,94.618
36.214,95.091
36.295,95.363
36.37,95.455
36.437,95.392
36.496,95.199
36.548,94.906
36.59,94.544
36.623,94.148
36.648,93.748
36.663,93.374
36.671,93.052
36.67,92.802
36.662,92.638
36.648,92.573
36.628,92.61
36.604,92.752
36.577,92.991
36.547,93.32
36.516,93.723
36.482,94.187
36.448,94.694
36.413,95.229
36.377,95.774
36.34,96.317
36.302,96.841
36.265,97.336
36.228,97.789
36.192,98.194
36.157,98.544
36.122,98.836
36.087,99.069
36.053,99.243
36.021,99.356
35.99,99.409
35.959,99.401
35.929,99.328
35.899,99.189
35.868,98.984
35.836,98.711
35.802,98.371
35.768,97.964
35.733,97.493
35.698,96.957
35.663,96.358
35.63,95.695
35.598,94.97
35.567,94.181
35.537,93.328
35.508,92.41
35.483,91.429
35.462,90.383
35.445,89.272
35.433,88.096
35.427,86.855
35.424,85.549
35.425,84.179
35.429,82.744
35.436,81.247
35.445,79.69
35.457,78.076
35.472,76.409
35.49,74.697
35.509,72.947
35.531,71.169
35.553,69.375
35.576,67.577
35.599,65.788
35.621,64.021
35.644,62.289
35.667,60.604
35.69,58.975
35.713,57.414
35.735,55.929
35.754,54.526
35.77,53.21
35.782,51.982
35.79,50.843
35.796,49.79
35.8,48.819
35.803,47.922
35.804,47.092
35.804,46.32
35.802,45.599
35.797,44.921
35.79,44.281
35.78,43.673
35.769,43.096
35.756,42.55
35.741,42.037
35.725,41.56
35.708,41.124
35.689,40.734
35.669,40.397
35.647,40.118
35.626,39.902
35.606,39.752
35.586,39.672
35.568,39.66
35.551,39.715
35.534,39.834
35.517,40.01
35.5,40.236
35.483,40.506
35.467,40.809
35.45,41.137
35.432,41.48
35.415,41.828
35.396,42.173
35.377,42.505
35.356,42.819
35.335,43.106
35.314,43.361
35.292,43.58
35.27,43.761
35.248,43.902
35.226,44.003
35.204,44.066
35.181,44.095
35.157,44.093
35.133,44.065
35.109,44.016
35.087,43.951
35.067,43.875
35.05,43.793
35.035,43.711
35.023,43.631
35.011,43.556
34.999,43.489
34.989,43.43
34.98,43.381
34.972,43.338
34.966,43.301
34.961,43.265
34.957,43.228
34.952,43.185
34.945,43.133
34.937,43.067
34.927,42.984
34.917,42.881
34.906,42.757
34.895,42.611
34.885,42.446
34.875,42.264
34.864,42.069
34.853,41.866
34.843,41.661
34.833,41.459
34.824,41.265
34.818,41.08
34.813,40.905
34.81,40.735
34.808,40.564
34.806,40.386
34.805,40.192
34.804,39.975
34.803,39.727
34.804,39.44
34.805,39.107
34.806,38.723
34.806,38.285
34.805,37.788
34.801,37.231
34.796,36.614
34.789,35.94
34.781,35.213
34.774,34.439
34.767,33.627
34.761,32.789
34.756,31.934
34.751,31.078
34.746,30.233
34.741,29.413
34.736,28.631
34.732,27.9
34.729,27.231
34.726,26.631
34.724,26.109
34.723,25.668
34.724,25.311
34.729,25.037
34.737,24.845
34.75,24.731
34.769,24.687
34.794,24.706
34.826,24.781
34.867,24.901
34.916,25.058
34.975,25.241
35.043,25.443
35.121,25.655
35.209,25.87
35.304,26.082
35.406,26.287
35.513,26.482
35.625,26.663
35.739,26.829
35.854,26.979
35.97,27.115
36.084,27.237
36.196,27.348
36.303,27.448
36.405,27.54
36.5,27.627
36.586,27.71
36.663,27.791
36.731,27.872
36.788,27.953
36.835,28.037
36.87,28.122
36.895,28.209
36.909,28.299
36.915,28.391
36.912,28.485
36.902,28.58
36.887,28.677
36.867,28.775
36.843,28.874
36.816,28.975
36.787,29.078
36.756,29.182
36.723,29.288
36.689,29.395
36.655,29.504
36.619,29.613
36.584,29.723
36.55,29.834
36.516,29.944
36.483,30.054
36.449,30.163
36.415,30.27
36.38,30.375
36.345,30.476
36.31,30.575
36.275,30.67
36.241,30.762
36.207,30.851
36.174,30.938
36.141,31.023
36.109,31.106
36.076,31.188
36.042,31.268
36.009,31.348
35.976,31.427
35.944,31.506
35.914,31.583
35.887,31.659
35.861,31.733
35.837,31.807
35.815,31.879
35.794,31.949
35.774,32.019
35.757,32.09
35.741,32.16
35.727,32.231
35.715,32.302
35.705,32.372
35.697,32.441
35.691,32.508
35.686,32.573
35.685,32.637
35.686,32.698
35.691,32.757
35.698,32.814
35.708,32.869
35.721,32.922
35.736,32.974
35.753,33.024
35.771,33.073
35.791,33.121
35.812,33.169
35.833,33.216
35.854,33.263
35.874,33.31
35.892,33.358
35.908,33.407
35.922,33.457
35.935,33.508
35.945,33.562
35.955,33.616
35.964,33.673
35.971,33.73
35.977,33.789
35.98,33.847
35.98,33.905
35.976,33.963
35.969,34.02
35.959,34.077
35.946,34.133
35.93,34.189
35.913,34.246
35.895,34.305
35.876,34.368
35.856,34.435
35.834,34.509
35.812,34.592
35.789,34.685
35.767,34.791
35.747,34.909
35.729,35.042
35.713,35.189
35.698,35.349
35.683,35.523
35.668,35.707
35.65,35.902
35.632,36.103
35.612,36.308
35.592,36.514
35.57,36.718
35.549,36.918
35.527,37.11
35.504,37.294
35.48,37.467
35.455,37.628
35.431,37.776
35.408,37.908
35.385,38.025
35.364,38.125
35.343,38.209
35.323,38.276
35.302,38.328
35.282,38.366
35.261,38.39
35.241,38.402
35.221,38.403
35.201,38.393
35.182,38.373
35.164,38.345
35.146,38.311
35.13,38.273
35.115,38.232
35.1,38.189
35.087,38.146
35.074,38.103
35.062,38.061
35.051,38.021
35.039,37.983
35.028,37.946
35.017,37.911
35.006,37.878
34.996,37.846
34.987,37.817
34.979,37.789
34.971,37.762
34.965,37.737
34.959,37.713
34.953,37.691
34.947,37.67
34.942,37.65
34.937,37.631
34.932,37.612
34.928,37.592
34.923,37.572
34.92,37.55
34.916,37.527
34.913,37.501
34.91,37.472
34.908,37.442
34.907,37.409
34.907,37.374
34.907,37.339
34.908,37.305
34.91,37.271
34.912,37.239
34.913,37.211
34.913,37.185
34.913,37.165
34.911,37.149
34.908,37.138
34.905,37.133
34.9,37.132
34.894,37.137
34.887,37.147
34.879,37.163
34.871,37.184
34.862,37.21
34.854,37.24
34.845,37.273
34.837,37.309
34.831,37.346
34.828,37.384
34.828,37.422
34.832,37.459
34.841,37.495
34.855,37.529
34.875,37.559
34.9,37.586
34.932,37.61
34.971,37.629
35.016,37.645
35.069,37.658
35.13,37.668
35.199,37.676
35.277,37.681
35.362,37.685
35.455,37.687
35.554,37.686
35.657,37.682
35.764,37.676
35.872,37.668
35.982,37.657
36.091,37.643
36.197,37.628
36.301,37.61
36.399,37.592
36.491,37.571
36.575,37.55
36.65,37.527
36.717,37.503
36.775,37.479
36.823,37.454
36.864,37.428
36.895,37.402
36.918,37.375
36.932,37.348
36.937,37.321
36.933,37.293
36.921,37.267
36.903,37.242
36.879,37.218
36.851,37.196
36.822,37.174
36.792,37.153
36.761,37.133
36.73,37.114
36.698,37.095
36.666,37.076
36.633,37.058
36.6,37.041
36.568,37.023
36.536,37.005
36.504,36.986
36.473,36.965
36.442,36.944
36.411,36.92
36.379,36.896
36.346,36.87
36.314,36.843
36.281,36.815
36.249,36.787
36.217,36.76
36.185,36.734
36.153,36.709
36.119,36.687
36.085,36.668
36.048,36.653
36.011,36.64
35.972,36.63
35.935,36.621
35.899,36.613
35.866,36.606
35.836,36.597
35.809,36.588
35.784,36.579
35.763,36.568
35.745,36.555
35.731,36.542
35.721,36.528
35.716,36.512
35.715,36.496
35.717,36.478
35.722,36.461
35.728,36.443
35.735,36.427
35.742,36.41
35.75,36.395
35.759,36.38
35.77,36.365
35.783,36.351
35.798,36.337
35.815,36.322
35.833,36.306
35.851,36.288
35.87,36.269
35.889,36.247
35.908,36.224
35.925,36.198
35.942,36.169
35.957,36.139
35.969,36.107
35.98,36.074
35.989,36.04
35.995,36.005
35.999,35.971
36,35.937
35.998,35.903
35.993,35.871
35.986,35.84
35.976,35.811
35.966,35.786
35.954,35.765
35.941,35.749
35.927,35.74
35.913,35.738
35.897,35.744
35.881,35.759
35.864,35.784
35.846,35.819
35.827,35.865
35.808,35.923
35.789,35.994
35.77,36.078
35.751,36.177
35.732,36.29
35.714,36.418
35.694,36.56
35.674,36.715
35.652,36.88
35.63,37.055
35.606,37.235
35.581,37.419
35.555,37.604
35.529,37.788
35.501,37.968
35.474,38.142
35.446,38.309
35.419,38.468
35.394,38.617
35.37,38.755
35.348,38.882
35.328,38.997
35.31,39.1
35.293,39.19
35.276,39.268
35.26,39.334
35.244,39.388
35.227,39.43
35.209,39.46
35.191,39.481
35.173,39.491
35.154,39.492
35.136,39.485
35.119,39.468
35.103,39.444
35.088,39.413
35.075,39.376
35.065,39.333
35.056,39.287
35.05,39.238
35.043,39.19
35.037,39.142
35.03,39.097
35.023,39.055
35.014,39.016
35.005,38.982
34.996,38.95
34.986,38.921
34.977,38.894
34.968,38.869
34.96,38.843
34.951,38.816
34.943,38.786
34.937,38.754
34.932,38.72
34.928,38.684
34.925,38.646
34.923,38.606
34.921,38.565
34.917,38.521
34.913,38.475
34.908,38.427
34.902,38.377
34.896,38.325
34.888,38.273
34.881,38.22
34.872,38.168
34.863,38.117
34.853,38.068
34.843,38.021
34.835,37.978
34.827,37.938
34.821,37.903
34.817,37.874
34.815,37.85
34.813,37.832
34.811,37.82
34.809,37.814
34.805,37.815
34.801,37.821
34.797,37.833
34.791,37.851
34.785,37.872
34.779,37.897
34.771,37.924
34.764,37.953
34.757,37.982
34.751,38.011
34.745,38.04
34.741,38.067
34.74,38.093
34.74,38.116
34.743,38.136
34.749,38.153
34.757,38.166
34.768,38.176
34.784,38.182
34.806,38.185
34.835,38.185
34.872,38.182
34.919,38.177
34.975,38.168
35.042,38.157
35.118,38.144
35.204,38.128
35.299,38.109
35.404,38.088
35.516,38.065
35.634,38.04
35.756,38.014
35.879,37.987
36.001,37.959
36.121,37.93
36.235,37.902
36.342,37.873
36.443,37.843
36.535,37.814
36.618,37.785
36.691,37.757
36.755,37.729
36.807,37.702
36.85,37.675
36.881,37.646
36.903,37.617
36.915,37.588
36.918,37.558
36.914,37.527
36.903,37.495
36.887,37.462
36.865,37.428
36.84,37.393
36.812,37.357
36.783,37.319
36.753,37.28
36.723,37.24
36.693,37.199
36.664,37.157
36.636,37.114
36.609,37.07
36.581,37.026
36.553,36.981
36.524,36.935
36.494,36.89
36.463,36.845
36.432,36.801
36.402,36.758
36.371,36.717
36.339,36.677
36.306,36.638
36.272,36.6
36.236,36.564
36.199,36.528
36.16,36.492
36.12,36.457
36.079,36.423
36.037,36.389
35.994,36.357
35.951,36.326
35.909,36.297
35.868,36.271
35.829,36.246
35.793,36.224
35.76,36.205
35.731,36.189
35.705,36.174
35.683,36.162
35.666,36.149
35.652,36.135
35.643,36.118
35.637,36.1
35.634,36.079
35.633,36.056
35.634,36.031
35.638,36.006
35.643,35.981
35.65,35.959
35.66,35.938
35.672,35.919
35.686,35.902
35.702,35.888
35.72,35.875
35.739,35.862
35.76,35.848
35.781,35.832
35.801,35.813
35.821,35.792
35.839,35.768
35.856,35.74
35.87,35.711
35.882,35.679
35.892,35.645
35.898,35.61
35.903,35.575
35.905,35.54
35.906,35.506
35.906,35.472
35.905,35.441
35.904,35.411
35.902,35.383
35.899,35.359
35.894,35.337
35.886,35.318
35.875,35.301
35.86,35.285
35.841,35.271
35.82,35.258
35.797,35.246
35.772,35.234
35.746,35.223
35.719,35.211
35.69,35.201
35.661,35.19
35.632,35.181
35.604,35.174
35.576,35.169
35.549,35.169
35.523,35.174
35.498,35.186
35.473,35.207
35.448,35.238
35.424,35.281
35.399,35.338
35.375,35.409
35.352,35.496
35.33,35.599
35.309,35.717
35.29,35.851
35.272,36
35.256,36.161
35.241,36.332
35.226,36.512
35.213,36.697
35.2,36.885
35.186,37.072
35.172,37.256
35.156,37.433
35.139,37.601
35.12,37.759
35.099,37.903
35.078,38.035
35.057,38.152
35.036,38.255
35.016,38.343
34.996,38.416
34.977,38.474
34.959,38.519
34.942,38.552
34.927,38.574
34.912,38.587
34.899,38.591
34.887,38.588
34.875,38.58
34.863,38.567
34.852,38.551
34.842,38.531
34.832,38.51
34.824,38.486
34.816,38.462
34.811,38.437
34.807,38.41
34.804,38.383
34.801,38.354
34.798,38.323
34.795,38.291
34.79,38.257
34.786,38.222
34.782,38.185
34.778,38.148
34.774,38.109
34.771,38.07
34.766,38.031
34.76,37.992
34.752,37.954
34.741,37.917
34.73,37.879
34.718,37.841
34.708,37.803
34.699,37.765
34.691,37.727
34.685,37.691
34.68,37.655
34.675,37.619
34.671,37.584
34.668,37.547
34.665,37.511
34.663,37.473
34.661,37.435
34.658,37.396
34.654,37.359
34.649,37.323
34.642,37.289
34.636,37.258
34.629,37.231
34.623,37.21
34.617,37.193
34.61,37.182
34.604,37.177
34.597,37.178
34.59,37.184
34.583,37.194
34.578,37.208
34.576,37.223
34.579,37.24
34.586,37.258
34.598,37.275
34.617,37.292
34.641,37.307
34.672,37.322
34.711,37.336
34.759,37.349
34.817,37.36
34.886,37.37
34.964,37.378
35.051,37.383
35.146,37.385
35.247,37.383
35.353,37.377
35.463,37.367
35.576,37.353
35.69,37.335
35.803,37.312
35.914,37.286
36.022,37.256
36.123,37.223
36.218,37.189
36.304,37.153
36.382,37.117
36.45,37.082
36.51,37.049
36.561,37.017
36.604,36.987
36.638,36.959
36.664,36.933
36.684,36.91
36.695,36.889
36.7,36.869
36.698,36.851
36.69,36.834
36.677,36.817
36.659,36.8
36.638,36.783
36.614,36.764
36.588,36.743
36.56,36.721
36.532,36.695
36.502,36.668
36.471,36.637
36.44,36.605
36.407,36.57
36.374,36.533
36.341,36.496
36.308,36.457
36.275,36.419
36.242,36.381
36.209,36.342
36.177,36.303
36.144,36.263
36.112,36.222
36.079,36.181
36.046,36.14
36.011,36.099
35.976,36.058
35.939,36.017
35.901,35.979
35.863,35.942
35.823,35.908
35.783,35.876
35.743,35.847
35.703,35.821
35.663,35.796
35.626,35.774
35.591,35.752
35.558,35.733
35.529,35.715
35.504,35.697
35.483,35.681
35.467,35.664
35.455,35.647
35.447,35.629
35.444,35.611
35.445,35.592
35.45,35.572
35.457,35.55
35.468,35.529
35.48,35.507
35.494,35.484
35.508,35.461
35.524,35.439
35.54,35.417
35.557,35.395
35.574,35.375
35.592,35.354
35.61,35.334
35.627,35.314
35.643,35.294
35.658,35.273
35.672,35.254
35.684,35.234
35.696,35.216
35.707,35.198
35.718,35.181
35.728,35.166
35.737,35.152
35.745,35.139
35.75,35.126
35.755,35.114
35.758,35.103
35.759,35.091
35.76,35.079
35.758,35.065
35.755,35.05
35.749,35.032
35.739,35.014
35.725,34.994
35.708,34.973
35.687,34.951
35.664,34.929
35.638,34.908
35.612,34.889
35.585,34.871
35.557,34.855
35.529,34.84
35.501,34.827
35.472,34.814
35.445,34.8
35.418,34.786
35.394,34.772
35.37,34.756
35.347,34.74
35.324,34.724
35.301,34.707
35.278,34.691
35.255,34.674
35.231,34.658
35.209,34.642
35.187,34.628
35.165,34.617
35.145,34.608
35.125,34.604
35.105,34.604
35.085,34.611
35.067,34.625
35.049,34.648
35.032,34.682
35.016,34.729
35,34.79
34.982,34.868
34.962,34.963
34.939,35.075
34.914,35.204
34.887,35.35
34.86,35.51
34.833,35.682
34.808,35.863
34.786,36.051
34.766,36.243
34.747,36.437
34.731,36.629
34.718,36.817
34.707,36.998
34.699,37.169
34.694,37.328
34.692,37.474
34.693,37.605
34.698,37.719
34.704,37.817
34.713,37.897
34.725,37.959
34.738,38.005
34.754,38.035
34.771,38.05
34.789,38.052
34.806,38.041
34.823,38.02
34.839,37.99
34.854,37.952
34.868,37.907
34.883,37.858
34.896,37.805
34.909,37.751
34.92,37.697
34.928,37.645
34.935,37.595
34.939,37.549
34.943,37.507
34.945,37.469
34.948,37.436
34.95,37.408
34.953,37.383
34.956,37.362
34.961,37.343
34.969,37.326
34.98,37.311
34.995,37.296
35.016,37.281
35.044,37.264
35.08,37.246
35.125,37.226
35.179,37.204
35.241,37.179
35.313,37.152
35.394,37.122
35.484,37.088
35.582,37.053
35.689,37.016
35.804,36.978
35.926,36.942
36.056,36.907
36.191,36.875
36.332,36.848
36.477,36.828
36.625,36.816
36.773,36.814
36.92,36.824
37.063,36.847
37.2,36.884
37.329,36.936
37.447,37.003
37.555,37.086
37.65,37.183
37.731,37.295
37.799,37.419
37.851,37.554
37.887,37.697
37.907,37.846
37.909,37.997
37.895,38.149
37.865,38.298
37.82,38.442
37.762,38.579
37.695,38.707
37.621,38.823
37.544,38.927
37.465,39.015
37.387,39.088
37.312,39.145
37.241,39.183
37.174,39.204
37.114,39.207
37.059,39.193
37.009,39.162
36.963,39.117
36.922,39.056
36.883,38.982
36.847,38.897
36.812,38.801
36.777,38.697
36.741,38.587
36.704,38.472
36.665,38.355
36.624,38.238
36.578,38.121
36.526,38.005
36.467,37.893
36.4,37.785
36.324,37.682
36.239,37.584
36.147,37.49
36.049,37.401
35.945,37.316
35.837,37.234
35.726,37.154
35.615,37.077
35.506,37.001
35.401,36.926
35.304,36.853
35.215,36.782
35.138,36.713
35.073,36.646
35.02,36.582
34.978,36.523
34.947,36.47
34.926,36.424
34.914,36.387
34.911,36.361
34.917,36.347
34.931,36.346
34.953,36.358
34.982,36.384
35.017,36.424
35.055,36.476
35.098,36.541
35.144,36.617
35.194,36.702
35.246,36.794
35.301,36.891
35.357,36.991
35.413,37.09
35.466,37.186
35.516,37.276
35.562,37.358
35.604,37.428
35.641,37.485
35.675,37.527
35.705,37.555
35.731,37.566
35.752,37.561
35.768,37.542
35.779,37.507
35.785,37.46
35.786,37.401
35.784,37.332
35.78,37.253
35.774,37.166
35.767,37.072
35.758,36.972
35.748,36.867
35.736,36.759
35.721,36.649
35.705,36.539
35.685,36.431
35.662,36.325
35.636,36.224
35.607,36.128
35.575,36.038
35.54,35.955
35.502,35.878
35.461,35.806
35.419,35.739
35.375,35.676
35.33,35.616
35.283,35.558
35.235,35.502
35.186,35.447
35.135,35.393
35.083,35.34
35.031,35.286
34.979,35.233
34.927,35.18
34.876,35.128
34.827,35.076
34.779,35.025
34.734,34.974
34.693,34.925
34.655,34.876
34.623,34.83
34.595,34.785
34.573,34.741
34.555,34.7
34.542,34.661
34.532,34.625
34.524,34.59
34.517,34.558
34.51,34.528
34.503,34.501
34.496,34.477
34.487,34.456
34.477,34.437
34.466,34.42
34.455,34.405
34.444,34.392
34.434,34.38
34.423,34.369
34.414,34.359
34.405,34.35
34.397,34.343
34.391,34.337
34.386,34.331
34.382,34.327
34.379,34.326
34.378,34.328
34.377,34.334
34.378,34.347
34.378,34.368
34.377,34.398
34.375,34.437
34.372,34.485
34.37,34.543
34.367,34.612
34.366,34.689
34.365,34.775
34.365,34.87
34.365,34.971
34.366,35.077
34.367,35.188
34.369,35.302
34.374,35.416
34.381,35.53
34.394,35.641
34.412,35.748
34.435,35.848
34.466,35.94
34.505,36.025
34.553,36.099
34.611,36.162
34.68,36.213
34.758,36.251
34.845,36.277
34.941,36.29
35.044,36.29
35.153,36.28
35.267,36.258
35.384,36.228
35.503,36.189
35.622,36.145
35.741,36.095
35.857,36.043
35.969,35.989
36.075,35.935
36.173,35.883
36.263,35.834
36.344,35.786
36.416,35.741
36.478,35.698
36.531,35.657
36.575,35.616
36.61,35.577
36.636,35.538
36.653,35.499
36.663,35.459
36.665,35.42
36.661,35.379
36.652,35.336
36.639,35.292
36.624,35.246
36.606,35.199
36.587,35.15
36.566,35.098
36.545,35.045
36.522,34.99
36.499,34.935
36.476,34.879
36.453,34.824
36.431,34.77
36.41,34.717
36.389,34.667
36.368,34.62
36.346,34.577
36.324,34.54
36.3,34.509
36.275,34.485
36.248,34.471
36.22,34.465
36.191,34.468
36.161,34.481
36.13,34.503
36.097,34.535
36.063,34.575
36.027,34.625
35.99,34.683
35.953,34.749
35.917,34.822
35.882,34.901
35.85,34.985
35.82,35.073
35.793,35.163
35.769,35.255
35.749,35.346
35.735,35.436
35.727,35.523
35.726,35.605
35.735,35.681
35.751,35.751
35.776,35.813
35.807,35.867
35.845,35.913
35.889,35.951
35.937,35.981
35.99,36.001
36.046,36.014
36.105,36.017
36.168,36.012
36.234,35.999
36.303,35.977
36.372,35.948
36.441,35.911
36.51,35.868
36.579,35.819
36.646,35.765
36.713,35.708
36.778,35.647
36.841,35.583
36.901,35.518
36.955,35.452
37.003,35.385
37.043,35.319
37.074,35.254
37.096,35.192
37.109,35.132
37.115,35.074
37.114,35.02
37.106,34.968
37.091,34.919
37.07,34.873
37.041,34.829
37.004,34.787
36.96,34.747
36.909,34.709
36.852,34.673
36.789,34.638
36.723,34.605
36.654,34.574
36.583,34.545
36.51,34.519
36.438,34.497
36.366,34.48
36.296,34.468
36.228,34.46
36.164,34.456
36.103,34.456
36.048,34.46
35.996,34.467
35.949,34.478
35.906,34.49
35.868,34.505
35.834,34.521
35.805,34.538
35.779,34.555
35.758,34.572
35.741,34.587
35.728,34.601
35.721,34.613
35.719,34.622
35.723,34.628
35.734,34.631
35.752,34.631
35.778,34.629
35.81,34.625
35.848,34.62
35.893,34.613
35.943,34.605
35.998,34.595
36.056,34.582
36.116,34.567
36.175,34.549
36.232,34.527
36.285,34.502
36.331,34.475
36.367,34.445
36.393,34.415
36.407,34.383
36.406,34.353
36.391,34.323
36.359,34.295
36.312,34.27
36.25,34.247
36.173,34.225
36.083,34.204
35.981,34.183
35.871,34.161
35.754,34.138
35.635,34.115
35.516,34.092
35.4,34.069
35.288,34.046
35.18,34.023
35.078,34.002
34.98,33.981
34.889,33.962
34.803,33.943
34.722,33.926
34.648,33.911
34.579,33.897
34.515,33.886
34.458,33.879
34.407,33.876
34.364,33.878
34.33,33.889
34.305,33.908
34.292,33.937
34.29,33.978
34.3,34.032
34.322,34.099
34.358,34.181
34.407,34.279
34.47,34.392
34.547,34.52
34.638,34.662
34.741,34.816
34.855,34.981
34.98,35.154
35.113,35.335
35.253,35.519
35.398,35.705
35.548,35.889
35.699,36.068
35.851,36.24
36,36.403
36.146,36.554
36.285,36.692
36.418,36.814
36.542,36.921
36.656,37.01
36.761,37.083
36.857,37.138
36.942,37.177
37.016,37.199
37.078,37.205
37.129,37.198
37.17,37.178
37.199,37.148
37.22,37.11
37.232,37.065
37.238,37.015
37.237,36.96
37.231,36.902
37.218,36.843
37.2,36.782
37.176,36.722
37.147,36.661
37.113,36.602
37.076,36.544
37.037,36.488
36.996,36.435
36.954,36.385
36.913,36.338
36.87,36.294
36.828,36.253
36.784,36.215
36.741,36.179
36.697,36.145
36.654,36.114
36.612,36.084
36.571,36.055
36.529,36.026
36.487,35.997
36.444,35.967
36.4,35.937
36.353,35.905
36.304,35.871
36.255,35.835
36.205,35.798
36.157,35.758
36.113,35.718
36.072,35.676
36.034,35.635
36.001,35.594
35.971,35.554
35.945,35.515
35.921,35.479
35.901,35.446
35.886,35.417
35.877,35.393
35.872,35.373
35.873,35.359
35.878,35.351
35.886,35.35
35.897,35.354
35.911,35.364
35.927,35.38
35.945,35.401
35.967,35.425
35.991,35.451
36.016,35.478
36.041,35.505
36.067,35.531
36.091,35.554
36.114,35.574
36.136,35.592
36.156,35.608
36.176,35.621
36.195,35.632
36.213,35.641
36.229,35.647
36.242,35.652
36.253,35.655
36.262,35.655
36.268,35.654
36.273,35.652
36.277,35.647
36.279,35.64
36.28,35.63
36.278,35.618
36.273,35.603
36.265,35.585
36.256,35.566
36.245,35.545
36.233,35.522
36.221,35.499
36.209,35.475
36.197,35.451
36.183,35.426
36.168,35.4
36.151,35.374
36.132,35.347
36.111,35.319
36.087,35.29
36.061,35.259
36.034,35.228
36.006,35.196
35.975,35.164
35.944,35.133
35.912,35.102
35.88,35.071
35.848,35.041
35.818,35.011
35.789,34.983
35.762,34.954
35.736,34.925
35.709,34.896
35.683,34.865
35.656,34.833
35.628,34.8
35.601,34.767
35.573,34.733
35.546,34.7
35.519,34.668
35.493,34.637
35.468,34.607
35.443,34.58
35.419,34.555
35.394,34.532
35.371,34.512
35.348,34.494
35.326,34.477
35.306,34.461
35.286,34.445
35.267,34.429
35.249,34.412
35.231,34.394
35.213,34.376
35.194,34.357
35.175,34.338
35.157,34.318
35.139,34.299
35.121,34.28
35.103,34.262
35.085,34.245
35.068,34.23
35.051,34.215
35.035,34.201
35.022,34.188
35.01,34.175
35,34.162
34.992,34.15
34.984,34.139
34.977,34.127
34.969,34.115
34.96,34.101
34.952,34.087
34.943,34.07
34.934,34.051
34.923,34.03
34.912,34.007
34.9,33.982
34.887,33.956
34.874,33.928
34.862,33.899
34.851,33.87
34.841,33.842
34.833,33.814
34.824,33.788
34.816,33.763
34.808,33.74
34.801,33.719
34.793,33.7
34.785,33.684
34.778,33.672
34.771,33.662
34.765,33.657
34.759,33.656
34.754,33.66
34.749,33.67
34.746,33.688
34.745,33.715
34.747,33.752
34.752,33.8
34.762,33.862
34.778,33.936
34.8,34.023
34.83,34.123
34.868,34.235
34.913,34.359
34.967,34.495
35.029,34.64
35.098,34.795
35.176,34.956
35.261,35.123
35.355,35.292
35.456,35.462
35.563,35.631
35.676,35.795
35.793,35.951
35.912,36.098
36.032,36.233
36.15,36.355
36.264,36.463
36.373,36.555
36.476,36.633
36.57,36.696
36.655,36.746
36.73,36.782
36.794,36.808
36.847,36.822
36.891,36.827
36.926,36.823
36.952,36.81
36.969,36.79
36.979,36.764
36.982,36.732
36.978,36.696
36.968,36.657
36.953,36.616
36.934,36.573
36.912,36.529
36.886,36.485
36.858,36.442
36.829,36.399
36.799,36.357
36.768,36.316
36.739,36.277
36.709,36.238
36.68,36.199
36.651,36.161
36.622,36.123
36.593,36.084
36.565,36.045
36.537,36.004
36.51,35.963
36.482,35.921
36.453,35.878
36.423,35.835
36.39,35.792
36.355,35.748
36.317,35.705
36.276,35.662
36.232,35.62
36.187,35.579
36.142,35.539
36.097,35.499
36.054,35.459
36.012,35.42
35.972,35.381
35.934,35.341
35.898,35.302
35.865,35.264
35.835,35.228
35.809,35.195
35.788,35.166
35.772,35.143
35.76,35.126
35.751,35.115
35.746,35.112
35.744,35.116
35.744,35.127
35.748,35.143
35.754,35.165
35.761,35.191
35.771,35.22
35.78,35.25
35.79,35.281
35.799,35.312
35.808,35.34
35.816,35.367
35.824,35.392
35.832,35.414
35.84,35.434
35.848,35.451
35.856,35.465
35.863,35.476
35.87,35.484
35.875,35.49
35.88,35.493
35.884,35.494
35.887,35.493
35.89,35.489
35.892,35.483
35.892,35.474
35.89,35.464
35.886,35.451
35.878,35.437
35.867,35.421
35.853,35.404
35.835,35.386
35.816,35.366
35.795,35.345
35.772,35.323
35.748,35.301
35.723,35.278
35.697,35.256
35.669,35.234
35.64,35.212
35.611,35.191
35.582,35.169
35.553,35.148
35.525,35.128
35.496,35.107
35.466,35.087
35.435,35.067
35.402,35.048
35.369,35.029
35.335,35.011
35.301,34.994
35.269,34.976
35.237,34.958
35.205,34.94
35.175,34.919
35.146,34.897
35.119,34.873
35.094,34.848
35.069,34.823
35.046,34.797
35.024,34.77
35.002,34.744
34.98,34.719
34.958,34.693
34.936,34.668
34.915,34.644
34.895,34.621
34.877,34.599
34.86,34.578
34.845,34.558
34.832,34.539
34.821,34.522
34.81,34.505
34.801,34.489
34.793,34.474
34.786,34.46
34.78,34.446
34.775,34.433
34.77,34.419
34.765,34.405
34.761,34.39
34.757,34.374
34.753,34.359
34.748,34.343
34.744,34.327
34.739,34.311
34.733,34.294
34.727,34.278
34.721,34.262
34.715,34.247
34.709,34.232
34.703,34.217
34.696,34.202
34.689,34.187
34.68,34.172
34.67,34.157
34.659,34.143
34.646,34.13
34.633,34.117
34.619,34.106
34.605,34.096
34.591,34.087
34.577,34.078
34.563,34.07
34.55,34.061
34.538,34.051
34.528,34.039
34.519,34.025
34.511,34.009
34.504,33.992
34.497,33.975
34.489,33.958
34.481,33.942
34.473,33.927
34.464,33.914
34.456,33.904
34.448,33.897
34.442,33.895
34.439,33.899
34.438,33.91
34.442,33.929
34.45,33.958
34.463,33.998
34.484,34.051
34.512,34.118
34.548,34.2
34.592,34.297
34.645,34.41
34.707,34.538
34.777,34.68
34.857,34.833
34.945,34.996
35.041,35.165
35.143,35.339
35.251,35.515
35.36,35.688
35.47,35.857
35.579,36.018
35.684,36.168
35.784,36.306
35.879,36.43
35.967,36.537
36.047,36.628
36.118,36.702
36.18,36.761
36.232,36.803
36.275,36.831
36.307,36.845
36.331,36.846
36.346,36.835
36.354,36.814
36.356,36.784
36.351,36.748
36.342,36.706
36.327,36.66
36.309,36.61
36.287,36.558
36.262,36.505
36.236,36.451
36.208,36.397
36.178,36.343
36.148,36.288
36.115,36.235
36.079,36.183
36.04,36.132
35.998,36.084
35.955,36.038
35.911,35.996
35.867,35.956
35.824,35.92
35.78,35.887
35.736,35.856
35.691,35.827
35.646,35.8
35.601,35.777
35.555,35.755
35.51,35.736
35.464,35.719
35.418,35.703
35.371,35.688
35.323,35.673
35.276,35.656
35.229,35.638
35.186,35.618
35.145,35.595
35.108,35.569
35.074,35.541
35.045,35.509
35.019,35.473
34.997,35.435
34.98,35.395
34.967,35.351
34.96,35.307
34.958,35.263
34.962,35.22
34.97,35.178
34.983,35.139
34.999,35.103
35.017,35.071
35.037,35.044
35.059,35.023
35.083,35.007
35.108,34.999
35.136,34.997
35.166,35.004
35.196,35.016
35.226,35.035
35.254,35.059
35.281,35.087
35.307,35.116
35.329,35.147
35.349,35.177
35.366,35.206
35.378,35.233
35.387,35.258
35.391,35.28
35.391,35.299
35.388,35.315
35.381,35.329
35.373,35.342
35.362,35.353
35.35,35.362
35.337,35.369
35.323,35.375
35.308,35.38
35.292,35.382
35.275,35.384
35.258,35.383
35.241,35.38
35.223,35.374
35.204,35.365
35.184,35.352
35.163,35.337
35.14,35.319
35.117,35.299
35.093,35.279
35.07,35.258
35.048,35.236
35.027,35.214
35.007,35.191
34.988,35.168
34.968,35.144
34.949,35.119
34.929,35.094
34.911,35.067
34.892,35.039
34.874,35.011
34.856,34.981
34.838,34.952
34.819,34.922
34.798,34.892
34.778,34.863
34.758,34.834
34.738,34.806
34.721,34.778
34.706,34.75
34.693,34.722
34.681,34.694
34.672,34.665
34.663,34.636
34.656,34.606
34.649,34.574
34.643,34.542
34.636,34.509
34.628,34.476
34.618,34.443
34.605,34.411
34.591,34.381
34.576,34.353
34.559,34.327
34.542,34.305
34.524,34.285
34.505,34.267
34.486,34.251
34.467,34.237
34.448,34.224
34.43,34.211
34.413,34.2
34.396,34.189
34.38,34.179
34.365,34.169
34.351,34.158
34.338,34.147
34.326,34.136
34.314,34.123
34.303,34.111
34.292,34.1
34.282,34.088
34.272,34.076
34.262,34.065
34.253,34.055
34.245,34.046
34.238,34.038
34.232,34.031
34.227,34.025
34.222,34.021
34.219,34.018
34.217,34.015
34.215,34.014
34.214,34.013
34.214,34.013
34.216,34.013
34.219,34.014
34.226,34.016
34.237,34.018
34.252,34.02
34.272,34.022
34.298,34.025
34.331,34.027
34.373,34.03
34.423,34.033
34.482,34.038
34.552,34.044
34.63,34.054
34.716,34.067
34.809,34.085
34.907,34.11
35.009,34.142
35.113,34.183
35.218,34.235
35.322,34.299
35.424,34.375
35.52,34.465
35.611,34.568
35.695,34.684
35.771,34.813
35.839,34.954
35.9,35.106
35.952,35.266
35.996,35.433
36.032,35.604
36.06,35.777
36.081,35.949
36.094,36.117
36.099,36.278
36.098,36.43
36.089,36.571
36.074,36.699
36.053,36.813
36.026,36.912
35.996,36.996
35.964,37.066
35.931,37.121
35.899,37.161
35.868,37.187
35.837,37.2
35.807,37.201
35.776,37.192
35.745,37.173
35.715,37.147
35.685,37.114
35.655,37.076
35.626,37.035
35.597,36.991
35.567,36.946
35.535,36.901
35.502,36.856
35.466,36.813
35.428,36.772
35.388,36.733
35.346,36.697
35.304,36.663
35.261,36.633
35.218,36.604
35.175,36.577
35.133,36.552
35.093,36.528
35.055,36.504
35.02,36.48
34.989,36.456
34.961,36.431
34.936,36.403
34.914,36.374
34.894,36.343
34.877,36.31
34.864,36.275
34.854,36.238
34.848,36.199
34.845,36.159
34.845,36.116
34.847,36.073
34.851,36.028
34.858,35.983
34.867,35.937
34.88,35.892
34.895,35.847
34.912,35.804
34.931,35.764
34.951,35.726
34.971,35.691
34.991,35.661
35.01,35.634
35.029,35.612
35.047,35.595
35.065,35.582
35.082,35.574
35.098,35.571
35.111,35.571
35.121,35.574
35.126,35.581
35.127,35.591
35.125,35.605
35.118,35.621
35.109,35.639
35.096,35.66
35.08,35.684
35.062,35.709
35.04,35.735
35.016,35.763
34.991,35.79
34.965,35.817
34.94,35.842
34.916,35.866
34.893,35.886
34.871,35.903
34.851,35.916
34.83,35.925
34.809,35.929
34.788,35.929
34.766,35.924
34.743,35.914
34.72,35.898
34.697,35.879
34.674,35.857
34.65,35.831
34.627,35.804
34.604,35.774
34.583,35.742
34.562,35.709
34.543,35.675
34.524,35.641
34.505,35.606
34.487,35.572
34.469,35.538
34.451,35.506
34.435,35.475
34.42,35.447
34.406,35.42
34.394,35.395
34.383,35.372
34.371,35.35
34.358,35.329
34.344,35.307
34.329,35.284
34.313,35.26
34.297,35.235
34.28,35.208
34.264,35.18
34.248,35.15
34.233,35.12
34.22,35.088
34.207,35.056
34.196,35.024
34.186,34.992
34.177,34.961
34.169,34.931
34.162,34.903
34.156,34.876
34.151,34.852
34.147,34.828
34.143,34.806
34.14,34.784
34.136,34.762
34.133,34.74
34.131,34.718
34.131,34.696
34.132,34.674
34.135,34.652
34.139,34.63
34.145,34.609
34.152,34.588
34.159,34.568
34.166,34.55
34.174,34.534
34.181,34.52
34.186,34.509
34.189,34.499
34.19,34.49
34.186,34.484
34.178,34.478
34.168,34.473
34.155,34.47
34.141,34.466
34.126,34.463
34.11,34.461
34.095,34.458
34.081,34.456
34.068,34.454
34.056,34.452
34.047,34.449
34.04,34.446
34.037,34.442
34.036,34.437
34.037,34.431
34.039,34.424
34.042,34.416
34.044,34.408
34.045,34.401
34.047,34.394
34.049,34.387
34.052,34.38
34.056,34.374
34.063,34.369
34.073,34.363
34.088,34.358
34.108,34.353
34.135,34.348
34.171,34.343
34.215,34.337
34.267,34.33
34.328,34.323
34.396,34.315
34.473,34.306
34.558,34.298
34.649,34.291
34.747,34.286
34.849,34.283
34.955,34.285
35.061,34.293
35.166,34.309
35.267,34.335
35.363,34.374
35.453,34.426
35.535,34.493
35.61,34.577
35.678,34.678
35.738,34.795
35.79,34.93
35.833,35.081
35.867,35.246
35.891,35.424
35.906,35.613
35.912,35.81
35.912,36.012
35.906,36.215
35.896,36.417
35.882,36.614
35.864,36.802
35.844,36.979
35.82,37.144
35.795,37.293
35.768,37.427
35.741,37.545
35.714,37.646
35.688,37.732
35.662,37.802
35.637,37.858
35.612,37.9
35.587,37.93
35.562,37.949
35.537,37.958
35.512,37.958
35.488,37.951
35.465,37.937
35.443,37.918
35.422,37.894
35.401,37.868
35.379,37.839
35.358,37.808
35.336,37.777
35.313,37.745
35.289,37.712
35.264,37.679
35.238,37.646
35.21,37.614
35.181,37.582
35.151,37.55
35.121,37.519
35.091,37.489
35.062,37.459
35.036,37.429
35.011,37.4
34.989,37.37
34.971,37.339
34.955,37.306
34.944,37.272
34.936,37.236
34.931,37.198
34.929,37.158
34.929,37.117
34.932,37.074
34.936,37.029
34.941,36.982
34.948,36.934
34.955,36.884
34.963,36.832
34.973,36.78
34.984,36.728
34.997,36.675
35.011,36.623
35.024,36.571
35.037,36.52
35.049,36.47
35.059,36.423
35.068,36.378
35.075,36.336
35.082,36.297
35.086,36.262
35.089,36.232
35.09,36.206
35.089,36.185
35.086,36.17
35.081,36.16
35.077,36.154
35.073,36.153
35.069,36.156
35.065,36.162
35.062,36.171
35.057,36.182
35.051,36.196
35.044,36.21
35.035,36.226
35.023,36.242
35.009,36.258
34.992,36.274
34.973,36.289
34.952,36.303
34.93,36.317
34.909,36.329
34.888,36.341
34.868,36.35
34.848,36.357
34.83,36.362
34.813,36.365
34.796,36.365
34.78,36.364
34.763,36.36
34.746,36.355
34.73,36.346
34.712,36.335
34.693,36.321
34.673,36.304
34.651,36.284
34.63,36.262
34.608,36.236
34.587,36.209
34.567,36.179
34.548,36.15
34.53,36.12
34.513,36.092
34.498,36.064
34.484,36.039
34.472,36.015
34.462,35.993
34.452,35.974
34.443,35.955
34.434,35.937
34.423,35.919
34.412,35.9
34.399,35.881
34.386,35.86
34.371,35.837
34.356,35.813
34.341,35.786
34.324,35.757
34.306,35.726
34.288,35.693
34.27,35.658
34.254,35.621
34.24,35.583
34.229,35.544
34.221,35.504
34.215,35.463
34.21,35.421
34.206,35.377
34.201,35.332
34.196,35.286
34.19,35.239
34.184,35.192
34.177,35.144
34.17,35.098
34.162,35.053
34.153,35.01
34.144,34.97
34.136,34.932
34.129,34.897
34.124,34.866
34.122,34.838
34.122,34.813
34.124,34.792
34.127,34.773
34.13,34.758
34.132,34.745
34.133,34.733
34.134,34.723
34.134,34.712
34.133,34.7
34.132,34.687
34.128,34.673
34.123,34.655
34.116,34.635
34.107,34.612
34.098,34.585
34.089,34.556
34.08,34.526
34.072,34.494
34.064,34.463
34.056,34.431
34.046,34.401
34.036,34.373
34.025,34.346
34.015,34.32
34.005,34.296
33.996,34.273
33.987,34.251
33.977,34.23
33.968,34.21
33.959,34.191
33.951,34.173
33.944,34.156
33.938,34.141
33.933,34.127
33.929,34.114
33.926,34.102
33.924,34.092
33.922,34.083
33.922,34.076
33.922,34.07
33.923,34.068
33.925,34.071
33.928,34.081
33.931,34.099
33.935,34.127
33.94,34.167
33.947,34.221
33.958,34.289
33.972,34.372
33.99,34.472
34.015,34.586
34.047,34.716
34.087,34.859
34.137,35.014
34.195,35.178
34.263,35.348
34.339,35.523
34.423,35.7
34.514,35.875
34.609,36.047
34.709,36.212
34.811,36.369
34.913,36.514
35.015,36.647
35.114,36.767
35.209,36.872
35.297,36.962
35.378,37.038
35.451,37.101
35.515,37.15
35.571,37.189
35.618,37.216
35.658,37.233
35.69,37.242
35.715,37.243
35.732,37.238
35.742,37.228
35.745,37.213
35.743,37.195
35.735,37.173
35.723,37.149
35.707,37.122
35.688,37.093
35.665,37.062
35.64,37.029
35.613,36.994
35.583,36.957
35.553,36.919
35.522,36.881
35.491,36.843
35.461,36.805
35.433,36.768
35.405,36.732
35.378,36.7
35.351,36.671
35.324,36.646
35.297,36.625
35.271,36.609
35.247,36.598
35.224,36.592
35.203,36.591
35.183,36.596
35.162,36.605
35.141,36.618
35.118,36.633
35.094,36.649
35.069,36.664
35.044,36.677
35.017,36.688
34.991,36.694
34.964,36.697
34.937,36.695
34.911,36.687
34.886,36.673
34.862,36.653
34.84,36.627
34.821,36.596
34.805,36.561
34.791,36.525
34.78,36.487
34.771,36.449
34.765,36.415
34.763,36.383
34.762,36.356
34.764,36.335
34.769,36.319
34.775,36.31
34.783,36.307
34.792,36.312
34.803,36.322
34.814,36.339
34.827,36.36
34.842,36.387
34.859,36.418
34.877,36.453
34.895,36.49
34.913,36.528
34.928,36.567
34.941,36.605
34.952,36.641
34.962,36.674
34.972,36.703
34.981,36.728
34.989,36.747
34.997,36.76
35.003,36.768
35.008,36.769
35.01,36.764
35.011,36.754
35.01,36.737
35.008,36.715
35.005,36.687
35,36.654
34.992,36.616
34.982,36.572
34.969,36.523
34.955,36.469
34.939,36.411
34.923,36.348
34.907,36.281
34.89,36.209
34.874,36.134
34.859,36.055
34.844,35.974
34.828,35.891
34.813,35.807
34.798,35.722
34.784,35.638
34.768,35.555
34.752,35.474
34.735,35.394
34.717,35.316
34.698,35.24
34.678,35.165
34.659,35.091
34.64,35.017
34.622,34.942
34.604,34.868
34.587,34.793
34.571,34.72
34.556,34.649
34.54,34.579
34.525,34.513
34.511,34.449
34.497,34.39
34.484,34.334
34.472,34.282
34.46,34.233
34.449,34.188
34.439,34.146
34.43,34.107
34.423,34.07
34.417,34.035
34.413,34
34.409,33.965
34.406,33.93
34.404,33.894
34.402,33.858
34.4,33.822
34.399,33.786
34.396,33.752
34.392,33.72
34.385,33.691
34.377,33.664
34.367,33.64
34.355,33.619
34.342,33.599
34.329,33.581
34.316,33.563
34.304,33.547
34.292,33.53
34.281,33.512
34.273,33.493
34.266,33.472
34.26,33.45
34.256,33.426
34.253,33.402
34.25,33.377
34.247,33.353
34.244,33.328
34.242,33.303
34.239,33.28
34.236,33.257
34.234,33.235
34.232,33.214
34.23,33.192
34.228,33.171
34.227,33.15
34.225,33.129
34.225,33.108
34.225,33.088
34.227,33.069
34.229,33.053
34.232,33.039
34.235,33.028
34.238,33.022
34.239,33.021
34.24,33.026
34.241,33.039
34.242,33.062
34.243,33.094
34.243,33.138
34.243,33.194
34.242,33.263
34.238,33.345
34.233,33.441
34.227,33.551
34.22,33.674
34.214,33.811
34.208,33.96
34.203,34.12
34.198,34.287
34.192,34.461
34.185,34.639
34.177,34.818
34.167,34.995
34.157,35.167
34.146,35.331
34.136,35.484
34.125,35.625
34.114,35.752
34.101,35.863
34.088,35.956
34.076,36.033
34.065,36.093
34.055,36.137
34.048,36.166
34.044,36.183
34.041,36.187
34.04,36.181
34.04,36.167
34.04,36.145
34.042,36.119
34.045,36.089
34.049,36.057
34.055,36.024
34.063,35.992
34.073,35.962
34.085,35.935
34.101,35.912
34.119,35.894
34.142,35.88
34.171,35.871
34.206,35.867
34.248,35.868
34.296,35.874
34.351,35.885
34.412,35.901
34.478,35.922
34.549,35.948
34.625,35.978
34.704,36.012
34.786,36.05
34.869,36.091
34.952,36.133
35.035,36.176
35.115,36.217
35.192,36.256
35.265,36.29
35.333,36.32
35.396,36.344
35.452,36.362
35.501,36.374
35.543,36.379
35.576,36.378
35.601,36.37
35.618,36.355
35.626,36.335
35.627,36.31
35.621,36.28
35.609,36.247
35.591,36.212
35.569,36.176
35.543,36.142
35.515,36.109
35.486,36.078
35.458,36.05
35.429,36.023
35.402,35.999
35.375,35.977
35.349,35.957
35.323,35.939
35.297,35.923
35.27,35.909
35.243,35.898
35.216,35.889
35.19,35.882
35.163,35.878
35.137,35.877
35.111,35.877
35.085,35.878
35.06,35.881
35.035,35.885
35.011,35.891
34.987,35.897
34.964,35.905
34.94,35.913
34.917,35.92
34.894,35.928
34.872,35.935
34.85,35.94
34.831,35.944
34.813,35.948
34.797,35.95
34.781,35.953
34.766,35.955
34.752,35.957
34.739,35.958
34.728,35.958
34.719,35.958
34.712,35.956
34.708,35.953
34.705,35.949
34.703,35.943
34.702,35.937
34.703,35.93
34.707,35.921
34.713,35.912
34.723,35.901
34.736,35.89
34.751,35.878
34.767,35.866
34.784,35.854
34.801,35.842
34.818,35.83
34.836,35.818
34.855,35.806
34.875,35.795
34.896,35.783
34.919,35.77
34.941,35.757
34.963,35.742
34.982,35.727
34.999,35.709
35.014,35.69
35.025,35.67
35.033,35.647
35.04,35.624
35.044,35.599
35.046,35.572
35.046,35.545
35.044,35.518
35.04,35.491
35.035,35.463
35.029,35.435
35.023,35.407
35.017,35.379
35.01,35.351
35.001,35.323
34.991,35.296
34.979,35.271
34.966,35.246
34.952,35.222
34.937,35.199
34.921,35.175
34.905,35.15
34.887,35.123
34.869,35.094
34.849,35.064
34.83,35.031
34.811,34.998
34.794,34.963
34.778,34.928
34.764,34.892
34.752,34.856
34.74,34.82
34.729,34.785
34.716,34.752
34.703,34.72
34.69,34.689
34.676,34.661
34.663,34.635
34.65,34.613
34.636,34.593
34.622,34.576
34.608,34.561
34.593,34.549
34.579,34.539
34.566,34.531
34.554,34.524
34.544,34.518
34.535,34.514
34.528,34.511
34.52,34.509
34.513,34.51
34.505,34.512
34.498,34.518
34.491,34.527
34.484,34.54
34.477,34.558
34.469,34.582
34.462,34.613
34.454,34.651
34.447,34.699
34.441,34.757
34.435,34.826
34.431,34.908
34.427,35.003
34.423,35.112
34.421,35.234
34.42,35.37
34.419,35.517
34.419,35.675
34.42,35.841
34.421,36.012
34.422,36.187
34.423,36.36
34.423,36.531
34.422,36.694
34.42,36.849
34.416,36.991
34.411,37.12
34.405,37.234
34.399,37.332
34.392,37.413
34.385,37.479
34.38,37.529
34.375,37.565
34.372,37.587
34.369,37.597
34.368,37.596
34.367,37.585
34.367,37.567
34.367,37.543
34.367,37.513
34.367,37.478
34.367,37.44
34.366,37.397
34.365,37.353
34.365,37.308
34.364,37.261
34.364,37.215
34.363,37.169
34.363,37.124
34.362,37.079
34.361,37.033
34.36,36.988
34.359,36.944
34.357,36.899
34.354,36.854
34.351,36.808
34.347,36.762
34.342,36.716
34.337,36.669
34.331,36.621
34.326,36.574
34.32,36.526
34.313,36.477
34.306,36.426
34.299,36.374
34.294,36.32
34.29,36.264
34.29,36.205
34.294,36.142
34.302,36.077
34.316,36.009
34.337,35.938
34.365,35.865
34.401,35.791
34.444,35.716
34.496,35.642
34.554,35.568
34.619,35.495
34.688,35.423
34.762,35.352
34.839,35.282
34.92,35.213
35.002,35.148
35.085,35.087
35.168,35.031
35.249,34.981
35.328,34.939
35.403,34.906
35.472,34.882
35.534,34.869
35.588,34.866
35.636,34.874
35.677,34.893
35.711,34.923
35.739,34.963
35.76,35.014
35.775,35.075
35.783,35.145
35.784,35.224
35.779,35.311
35.77,35.404
35.758,35.499
35.743,35.594
35.725,35.686
35.705,35.77
35.682,35.842
35.658,35.9
35.632,35.94
35.605,35.961
35.579,35.963
35.553,35.948
35.528,35.917
35.503,35.871
35.478,35.815
35.453,35.75
35.426,35.68
35.399,35.607
35.371,35.533
35.344,35.46
35.316,35.39
35.289,35.322
35.262,35.257
35.235,35.194
35.208,35.132
35.182,35.072
35.156,35.012
35.131,34.952
35.106,34.893
35.082,34.834
35.059,34.777
35.035,34.724
35.01,34.674
34.985,34.628
34.961,34.587
34.936,34.552
34.914,34.523
34.894,34.498
34.877,34.478
34.863,34.461
34.851,34.446
34.842,34.43
34.837,34.412
34.834,34.39
34.834,34.364
34.838,34.331
34.846,34.292
34.855,34.246
34.866,34.195
34.877,34.138
34.889,34.077
34.9,34.011
34.911,33.941
34.922,33.867
34.934,33.791
34.946,33.711
34.96,33.63
34.975,33.545
34.991,33.459
35.009,33.371
35.027,33.282
35.045,33.194
35.062,33.108
35.079,33.025
35.094,32.947
35.106,32.876
35.116,32.811
35.124,32.755
35.129,32.708
35.133,32.669
35.134,32.641
35.133,32.621
35.13,32.609
35.125,32.605
35.118,32.608
35.109,32.616
35.098,32.628
35.086,32.643
35.072,32.662
35.058,32.681
35.041,32.699
35.023,32.716
35.004,32.731
34.985,32.742
34.966,32.749
34.948,32.752
34.932,32.751
34.918,32.746
34.906,32.738
34.896,32.727
34.885,32.714
34.876,32.7
34.866,32.688
34.858,32.678
34.851,32.674
34.843,32.679
34.835,32.694
34.827,32.723
34.817,32.768
34.806,32.829
34.794,32.91
34.78,33.009
34.765,33.127
34.749,33.264
34.732,33.416
34.715,33.582
34.697,33.758
34.68,33.942
34.662,34.131
34.646,34.32
34.631,34.508
34.619,34.691
34.607,34.866
34.597,35.032
34.587,35.187
34.577,35.329
34.567,35.457
34.557,35.571
34.548,35.67
34.539,35.755
34.532,35.828
34.525,35.889
34.518,35.941
34.512,35.986
34.506,36.025
34.5,36.062
34.494,36.099
34.49,36.14
34.486,36.188
34.482,36.245
34.479,36.314
34.476,36.396
34.473,36.495
34.469,36.609
34.464,36.741
34.46,36.89
34.457,37.054
34.454,37.234
34.453,37.428
34.453,37.633
34.454,37.846
34.455,38.065
34.457,38.286
34.46,38.503
34.463,38.714
34.466,38.913
34.47,39.096
34.474,39.258
34.476,39.394
34.478,39.501
34.478,39.575
34.476,39.612
34.473,39.61
34.47,39.567
34.467,39.484
34.463,39.359
34.458,39.194
34.452,38.993
34.447,38.758
34.441,38.496
34.436,38.211
34.432,37.911
34.428,37.602
34.426,37.291
34.425,36.986
34.424,36.692
34.424,36.417
34.425,36.164
34.426,35.936
34.427,35.738
34.427,35.57
34.427,35.432
34.426,35.324
34.424,35.243
34.42,35.188
34.416,35.156
34.411,35.143
34.407,35.148
34.403,35.167
34.399,35.196
34.397,35.234
34.395,35.279
34.393,35.33
34.393,35.385
34.394,35.444
34.395,35.506
34.396,35.57
34.398,35.636
34.401,35.701
34.405,35.767
34.411,35.831
34.42,35.894
34.434,35.954
34.452,36.012
34.477,36.066
34.508,36.115
34.546,36.159
34.591,36.198
34.644,36.231
34.705,36.257
34.774,36.277
34.85,36.291
34.934,36.298
35.023,36.3
35.116,36.298
35.211,36.291
35.307,36.281
35.4,36.268
35.49,36.252
35.575,36.233
35.654,36.211
35.726,36.187
35.79,36.161
35.845,36.133
35.891,36.101
35.927,36.066
35.955,36.028
35.974,35.987
35.985,35.944
35.989,35.899
35.985,35.851
35.975,35.801
35.959,35.75
35.936,35.696
35.908,35.641
35.876,35.585
35.84,35.528
35.802,35.471
35.763,35.413
35.725,35.356
35.689,35.299
35.656,35.242
35.626,35.187
35.599,35.134
35.574,35.084
35.551,35.038
35.53,34.997
35.51,34.96
35.491,34.928
35.473,34.901
35.453,34.879
35.433,34.861
35.411,34.848
35.388,34.839
35.364,34.834
35.34,34.832
35.317,34.833
35.294,34.836
35.271,34.839
35.25,34.842
35.228,34.844
35.206,34.845
35.183,34.843
35.16,34.839
35.136,34.831
35.114,34.821
35.092,34.808
35.071,34.794
35.052,34.777
35.033,34.759
35.015,34.739
35,34.717
34.987,34.694
34.978,34.669
34.972,34.641
34.971,34.61
34.973,34.576
34.977,34.538
34.983,34.496
34.991,34.451
35,34.403
35.01,34.354
35.021,34.305
35.033,34.256
35.046,34.209
35.059,34.166
35.073,34.127
35.087,34.096
35.102,34.073
35.117,34.062
35.131,34.063
35.145,34.078
35.157,34.11
35.168,34.159
35.179,34.227
35.188,34.315
35.197,34.421
35.204,34.546
35.209,34.688
35.212,34.843
35.212,35.01
35.209,35.185
35.203,35.364
35.194,35.543
35.183,35.72
35.17,35.891
35.158,36.053
35.146,36.205
35.135,36.344
35.124,36.469
35.114,36.579
35.105,36.674
35.096,36.754
35.087,36.82
35.078,36.871
35.07,36.91
35.061,36.937
35.052,36.954
35.041,36.963
35.029,36.963
35.015,36.957
35,36.945
34.985,36.928
34.97,36.906
34.956,36.881
34.942,36.855
34.93,36.827
34.917,36.799
34.906,36.771
34.896,36.745
34.886,36.72
34.878,36.698
34.871,36.679
34.864,36.663
34.857,36.652
34.849,36.646
34.84,36.644
34.83,36.646
34.818,36.653
34.806,36.664
34.792,36.676
34.778,36.69
34.763,36.703
34.746,36.712
34.73,36.715
34.713,36.711
34.696,36.696
34.681,36.67
34.667,36.632
34.656,36.58
34.646,36.516
34.638,36.44
34.63,36.353
34.623,36.258
34.615,36.157
34.607,36.051
34.599,35.945
34.592,35.84
34.587,35.739
34.583,35.645
34.58,35.56
34.579,35.484
34.578,35.419
34.579,35.365
34.58,35.322
34.582,35.291
34.584,35.271
34.588,35.261
34.591,35.261
34.595,35.268
34.598,35.283
34.6,35.305
34.602,35.333
34.604,35.365
34.606,35.4
34.608,35.438
34.609,35.477
34.609,35.518
34.608,35.56
34.605,35.603
34.602,35.646
34.597,35.689
34.591,35.732
34.585,35.774
34.579,35.815
34.572,35.854
34.565,35.89
34.558,35.922
34.551,35.949
34.543,35.972
34.536,35.99
34.529,36.002
34.522,36.009
34.516,36.01
34.51,36.007
34.504,35.999
34.499,35.987
34.494,35.97
34.49,35.95
34.485,35.926
34.482,35.9
34.479,35.871
34.477,35.843
34.475,35.814
34.474,35.786
34.474,35.759
34.475,35.733
34.475,35.709
34.475,35.686
34.475,35.664
34.473,35.643
34.472,35.622
34.47,35.6
34.47,35.578
34.471,35.555
34.473,35.53
34.476,35.506
34.482,35.48
34.489,35.455
34.501,35.43
34.517,35.405
34.539,35.382
34.567,35.359
34.602,35.338
34.644,35.318
34.693,35.298
34.748,35.279
34.81,35.26
34.877,35.24
34.949,35.219
35.025,35.198
35.103,35.176
35.184,35.153
35.265,35.131
35.346,35.11
35.425,35.09
35.501,35.071
35.572,35.055
35.638,35.04
35.697,35.026
35.749,35.013
35.793,35
35.829,34.986
35.856,34.972
35.874,34.958
35.884,34.944
35.885,34.929
35.88,34.914
35.869,34.898
35.854,34.882
35.835,34.867
35.815,34.851
35.792,34.835
35.767,34.82
35.74,34.806
35.712,34.793
35.682,34.78
35.653,34.768
35.623,34.756
35.594,34.745
35.564,34.733
35.534,34.721
35.504,34.708
35.473,34.696
35.441,34.683
35.41,34.672
35.38,34.663
35.351,34.657
35.325,34.653
35.3,34.654
35.275,34.66
35.251,34.673
35.226,34.695
35.202,34.727
35.177,34.769
35.151,34.823
35.126,34.89
35.1,34.969
35.073,35.063
35.046,35.17
35.018,35.291
34.99,35.425
34.964,35.571
34.94,35.728
34.919,35.894
34.902,36.067
34.887,36.244
34.876,36.421
34.869,36.597
34.864,36.768
34.863,36.932
34.866,37.086
34.872,37.227
34.88,37.355
34.891,37.467
34.903,37.564
34.916,37.646
34.93,37.713
34.945,37.766
34.961,37.805
34.978,37.83
34.996,37.844
35.015,37.846
35.035,37.838
35.056,37.822
35.077,37.798
35.099,37.768
35.12,37.733
35.14,37.692
35.159,37.648
35.175,37.601
35.19,37.551
35.202,37.499
35.212,37.447
35.219,37.393
35.225,37.34
35.229,37.288
35.231,37.236
35.232,37.184
35.233,37.134
35.234,37.085
35.234,37.036
35.234,36.99
35.233,36.945
35.232,36.902
35.229,36.859
35.225,36.818
35.219,36.777
35.212,36.737
35.204,36.698
35.194,36.658
35.183,36.618
35.171,36.577
35.158,36.536
35.145,36.495
35.133,36.454
35.119,36.413
35.106,36.37
35.093,36.328
35.079,36.286
35.064,36.244
35.049,36.203
35.035,36.163
35.019,36.126
35.003,36.091
34.987,36.06
34.969,36.032
34.952,36.008
34.936,35.987
34.921,35.971
34.907,35.958
34.895,35.948
34.883,35.942
34.872,35.94
34.862,35.94
34.852,35.943
34.843,35.95
34.834,35.96
34.826,35.973
34.819,35.988
34.812,36.006
34.804,36.026
34.795,36.048
34.785,36.071
34.773,36.094
34.761,36.117
34.75,36.138
34.741,36.158
34.733,36.174
34.728,36.188
34.724,36.198
34.722,36.204
34.721,36.206
34.72,36.203
34.72,36.197
34.719,36.188
34.719,36.177
34.718,36.164
34.716,36.151
34.712,36.137
34.707,36.123
34.701,36.109
34.695,36.095
34.689,36.081
34.684,36.067
34.68,36.053
34.677,36.038
34.675,36.023
34.673,36.006
34.67,35.987
34.668,35.966
34.666,35.943
34.664,35.92
34.663,35.896
34.661,35.873
34.66,35.85
34.658,35.828
34.655,35.806
34.652,35.786
34.648,35.767
34.644,35.748
34.642,35.731
34.64,35.713
34.64,35.695
34.642,35.677
34.644,35.659
34.648,35.64
34.653,35.621
34.66,35.602
34.67,35.582
34.683,35.561
34.699,35.54
34.719,35.518
34.742,35.496
34.77,35.474
34.802,35.453
34.838,35.433
34.879,35.415
34.926,35.398
34.977,35.383
35.035,35.37
35.098,35.358
35.167,35.347
35.241,35.338
35.318,35.33
35.398,35.322
35.478,35.314
35.557,35.306
35.633,35.297
35.706,35.286
35.773,35.275
35.834,35.264
35.887,35.252
35.933,35.241
35.971,35.231
36.001,35.222
36.023,35.214
36.038,35.208
36.047,35.204
36.049,35.203
36.045,35.204
36.036,35.208
36.022,35.213
36.004,35.219
35.984,35.227
35.96,35.236
35.934,35.246
35.905,35.256
35.875,35.268
35.842,35.283
35.808,35.303
35.774,35.329
35.74,35.364
35.707,35.409
35.674,35.467
35.642,35.539
35.611,35.623
35.581,35.721
35.551,35.831
35.522,35.953
35.494,36.084
35.466,36.225
35.438,36.373
35.409,36.526
35.381,36.682
35.353,36.839
35.325,36.994
35.297,37.145
35.27,37.289
35.243,37.426
35.216,37.553
35.19,37.669
35.165,37.773
35.14,37.865
35.117,37.943
35.095,38.008
35.075,38.059
35.057,38.098
35.04,38.123
35.025,38.135
35.011,38.135
34.997,38.124
34.984,38.102
34.972,38.07
34.963,38.029
34.958,37.981
34.957,37.928
34.961,37.871
34.97,37.811
34.983,37.75
34.999,37.69
35.017,37.63
35.037,37.572
35.057,37.517
35.078,37.464
35.099,37.416
35.122,37.371
35.144,37.331
35.164,37.294
35.183,37.261
35.201,37.23
35.217,37.201
35.232,37.174
35.247,37.146
35.261,37.119
35.275,37.092
35.287,37.063
35.297,37.033
35.306,37.002
35.312,36.968
35.316,36.932
35.318,36.893
35.32,36.851
35.321,36.807
35.321,36.761
35.32,36.714
35.318,36.667
35.315,36.62
35.31,36.573
35.304,36.529
35.297,36.487
35.29,36.449
35.282,36.415
35.273,36.386
35.264,36.362
35.254,36.344
35.243,36.332
35.231,36.326
35.217,36.324
35.203,36.327
35.188,36.334
35.173,36.345
35.159,36.359
35.143,36.376
35.127,36.395
35.11,36.415
35.093,36.436
35.077,36.456
35.061,36.476
35.047,36.495
35.034,36.512
35.021,36.529
35.007,36.543
34.992,36.556
34.977,36.567
34.962,36.576
34.946,36.582
34.931,36.586
34.916,36.588
34.9,36.587
34.885,36.584
34.87,36.578
34.855,36.57
34.841,36.558
34.827,36.543
34.815,36.526
34.803,36.508
34.792,36.487
34.782,36.465
34.773,36.442
34.766,36.417
34.759,36.392
34.754,36.366
34.749,36.34
34.745,36.315
34.741,36.289
34.737,36.265
34.733,36.242
34.728,36.219
34.723,36.196
34.719,36.173
34.716,36.149
34.713,36.124
34.712,36.097
34.712,36.068
34.711,36.036
34.711,36.004
34.709,35.97
34.707,35.936
34.703,35.903
34.699,35.87
34.693,35.839
34.686,35.81
34.679,35.782
34.674,35.755
34.669,35.73
34.667,35.707
34.667,35.685
34.67,35.664
34.675,35.644
34.681,35.625
34.69,35.605
34.7,35.585
34.711,35.564
34.725,35.542
34.74,35.519
34.756,35.496
34.774,35.473
34.795,35.45
34.817,35.428
34.843,35.407
34.873,35.386
34.909,35.366
34.952,35.347
35.003,35.329
35.061,35.313
35.127,35.299
35.199,35.288
35.276,35.279
35.358,35.273
35.444,35.269
35.531,35.266
35.62,35.264
35.71,35.263
35.798,35.264
35.882,35.267
35.961,35.273
36.033,35.281
36.096,35.292
36.15,35.307
36.195,35.328
36.231,35.354
36.259,35.386
36.279,35.427
36.293,35.476
36.299,35.536
36.298,35.607
36.29,35.692
36.274,35.791
36.253,35.905
36.227,36.033
36.199,36.177
36.169,36.335
36.138,36.507
36.107,36.691
36.076,36.884
36.044,37.085
36.014,37.29
35.984,37.495
35.956,37.699
35.93,37.898
35.907,38.089
35.885,38.27
35.865,38.437
35.846,38.589
35.827,38.725
35.808,38.843
35.788,38.942
35.768,39.024
35.748,39.086
35.728,39.131
35.708,39.159
35.688,39.17
35.668,39.165
35.648,39.146
35.628,39.115
35.608,39.072
35.588,39.02
35.569,38.959
35.549,38.893
35.529,38.823
35.508,38.75
35.486,38.677
35.464,38.604
35.441,38.533
35.418,38.465
35.395,38.4
35.374,38.337
35.355,38.278
35.339,38.221
35.326,38.168
35.315,38.119
35.308,38.074
35.304,38.035
35.304,38
35.309,37.97
35.317,37.944
35.329,37.923
35.343,37.906
35.359,37.893
35.375,37.884
35.39,37.876
35.405,37.87
35.419,37.865
35.433,37.859
35.447,37.852
35.462,37.844
35.477,37.834
35.491,37.821
35.505,37.807
35.518,37.79
35.53,37.772
35.54,37.753
35.549,37.732
35.557,37.711
35.564,37.688
35.568,37.664
35.57,37.639
35.57,37.613
35.568,37.586
35.564,37.558
35.559,37.529
35.552,37.501
35.545,37.472
35.537,37.443
35.529,37.412
35.52,37.38
35.511,37.345
35.501,37.306
35.491,37.263
35.48,37.216
35.468,37.165
35.455,37.11
35.439,37.051
35.422,36.99
35.404,36.927
35.385,36.863
35.367,36.8
35.35,36.737
35.333,36.677
35.316,36.619
35.3,36.564
35.283,36.512
35.268,36.464
35.253,36.419
35.24,36.377
35.228,36.337
35.218,36.3
35.208,36.265
35.2,36.232
35.19,36.201
35.18,36.172
35.169,36.144
35.157,36.117
35.145,36.091
35.133,36.066
35.122,36.043
35.11,36.021
35.099,36
35.087,35.981
35.075,35.962
35.063,35.945
35.051,35.927
35.038,35.91
35.026,35.892
35.015,35.873
35.003,35.854
34.993,35.834
34.983,35.814
34.974,35.793
34.966,35.772
34.96,35.751
34.956,35.73
34.952,35.71
34.948,35.691
34.943,35.672
34.937,35.655
34.93,35.64
34.924,35.626
34.917,35.614
34.911,35.603
34.906,35.592
34.902,35.583
34.897,35.574
34.893,35.565
34.888,35.555
34.882,35.545
34.877,35.534
34.872,35.522
34.868,35.509
34.864,35.494
34.861,35.477
34.858,35.458
34.854,35.437
34.851,35.414
34.847,35.39
34.844,35.363
34.841,35.335
34.838,35.305
34.836,35.273
34.834,35.239
34.83,35.205
34.826,35.171
34.82,35.137
34.815,35.105
34.809,35.074
34.806,35.044
34.805,35.017
34.807,34.991
34.812,34.967
34.822,34.945
34.836,34.925
34.856,34.906
34.882,34.888
34.916,34.871
34.958,34.854
35.007,34.837
35.065,34.82
35.129,34.804
35.201,34.788
35.277,34.772
35.359,34.757
35.444,34.743
35.532,34.73
35.623,34.72
35.715,34.714
35.806,34.712
35.894,34.716
35.978,34.726
36.056,34.745
36.128,34.775
36.193,34.816
36.248,34.871
36.295,34.94
36.331,35.025
36.357,35.126
36.374,35.243
36.382,35.376
36.383,35.523
36.376,35.682
36.364,35.851
36.347,36.028
36.325,36.208
36.3,36.389
36.272,36.568
36.242,36.74
36.21,36.903
36.179,37.054
36.147,37.19
36.115,37.309
36.084,37.411
36.052,37.493
36.02,37.557
35.988,37.601
35.957,37.627
35.927,37.636
35.898,37.629
35.871,37.608
35.846,37.576
35.821,37.534
35.798,37.484
35.775,37.429
35.751,37.371
35.727,37.311
35.701,37.252
35.674,37.194
35.647,37.138
35.619,37.084
35.59,37.033
35.56,36.984
35.53,36.937
35.5,36.892
35.471,36.849
35.443,36.805
35.417,36.763
35.393,36.72
35.37,36.678
35.349,36.634
35.33,36.589
35.314,36.543
35.299,36.496
35.288,36.448
35.281,36.399
35.278,36.348
35.279,36.296
35.284,36.242
35.292,36.186
35.303,36.13
35.316,36.073
35.332,36.016
35.349,35.96
35.368,35.906
35.388,35.854
35.409,35.806
35.431,35.76
35.452,35.719
35.474,35.682
35.494,35.649
35.514,35.621
35.532,35.598
35.55,35.58
35.568,35.568
35.585,35.56
35.601,35.558
35.615,35.56
35.629,35.567
35.64,35.577
35.651,35.59
35.66,35.606
35.668,35.625
35.675,35.646
35.68,35.669
35.683,35.694
35.682,35.718
35.678,35.741
35.67,35.764
35.659,35.785
35.645,35.803
35.63,35.818
35.615,35.831
35.599,35.84
35.583,35.847
35.568,35.85
35.552,35.85
35.536,35.848
35.521,35.845
35.506,35.841
35.492,35.836
35.479,35.832
35.467,35.827
35.455,35.823
35.442,35.817
35.428,35.812
35.413,35.805
35.396,35.799
35.38,35.793
35.363,35.787
35.347,35.78
35.331,35.773
35.317,35.764
35.303,35.754
35.29,35.742
35.278,35.727
35.266,35.709
35.256,35.688
35.245,35.664
35.235,35.638
35.223,35.61
35.211,35.58
35.199,35.551
35.187,35.521
35.175,35.492
35.162,35.465
35.149,35.44
35.136,35.417
35.121,35.395
35.107,35.374
35.093,35.354
35.08,35.335
35.068,35.317
35.059,35.298
35.051,35.278
35.044,35.258
35.039,35.237
35.035,35.216
35.031,35.194
35.027,35.173
35.023,35.151
35.018,35.129
35.013,35.107
35.009,35.085
35.004,35.063
34.999,35.042
34.994,35.022
34.989,35.002
34.984,34.983
34.979,34.965
34.974,34.946
34.969,34.928
34.965,34.911
34.961,34.894
34.957,34.878
34.952,34.863
34.948,34.849
34.944,34.836
34.941,34.824
34.939,34.813
34.939,34.804
34.939,34.796
34.941,34.789
34.942,34.783
34.944,34.777
34.947,34.771
34.95,34.764
34.954,34.757
34.959,34.748
34.964,34.738
34.97,34.727
34.975,34.716
34.979,34.704
34.985,34.692
34.993,34.68
35.004,34.669
35.02,34.66
35.043,34.652
35.072,34.648
35.108,34.646
35.152,34.646
35.203,34.65
35.261,34.656
35.328,34.667
35.402,34.681
35.484,34.701
35.572,34.726
35.663,34.759
35.756,34.801
35.848,34.854
35.937,34.917
36.021,34.993
36.1,35.082
36.172,35.184
36.238,35.3
36.298,35.429
36.352,35.57
36.398,35.722
36.436,35.882
36.465,36.047
36.485,36.215
36.497,36.384
36.501,36.549
36.499,36.707
36.491,36.857
36.477,36.994
36.458,37.118
36.435,37.226
36.408,37.319
36.379,37.394
36.347,37.454
36.316,37.498
36.285,37.527
36.255,37.542
36.227,37.545
36.2,37.537
36.173,37.521
36.148,37.496
36.123,37.464
36.098,37.426
36.073,37.384
36.047,37.337
36.021,37.286
35.995,37.232
35.969,37.175
35.944,37.117
35.919,37.056
35.895,36.995
35.871,36.933
35.847,36.872
35.822,36.812
35.795,36.754
35.768,36.698
35.74,36.646
35.711,36.596
35.682,36.55
35.653,36.507
35.624,36.468
35.595,36.43
35.567,36.395
35.54,36.359
35.514,36.324
35.491,36.289
35.472,36.252
35.456,36.214
35.444,36.174
35.437,36.133
35.434,36.091
35.434,36.047
35.437,36.003
35.442,35.958
35.448,35.914
35.456,35.871
35.465,35.831
35.475,35.793
35.488,35.76
35.501,35.73
35.516,35.705
35.532,35.685
35.549,35.669
35.566,35.659
35.584,35.653
35.601,35.651
35.619,35.653
35.636,35.658
35.651,35.666
35.665,35.677
35.676,35.69
35.684,35.704
35.69,35.721
35.692,35.739
35.694,35.758
35.695,35.778
35.696,35.799
35.697,35.82
35.699,35.842
35.7,35.864
35.699,35.886
35.698,35.908
35.695,35.93
35.691,35.951
35.686,35.972
35.68,35.992
35.674,36.01
35.665,36.025
35.653,36.037
35.638,36.045
35.621,36.05
35.602,36.051
35.583,36.048
35.563,36.041
35.544,36.031
35.526,36.016
35.508,35.998
35.491,35.978
35.474,35.954
35.456,35.93
35.438,35.905
35.42,35.879
35.401,35.853
35.382,35.826
35.364,35.8
35.346,35.773
35.329,35.747
35.313,35.721
35.298,35.695
35.285,35.67
35.273,35.645
35.262,35.622
35.252,35.599
35.241,35.576
35.23,35.555
35.218,35.534
35.205,35.513
35.19,35.493
35.175,35.472
35.16,35.451
35.144,35.429
35.128,35.405
35.112,35.381
35.097,35.355
35.082,35.329
35.069,35.302
35.057,35.275
35.047,35.247
35.039,35.219
35.033,35.192
35.028,35.165
35.024,35.14
35.02,35.115
35.016,35.093
35.01,35.072
35.004,35.054
34.998,35.037
34.992,35.022
34.986,35.009
34.98,34.997
34.976,34.987
34.973,34.977
34.97,34.969
34.967,34.962
34.964,34.956
34.961,34.952
34.958,34.948
34.955,34.944
34.951,34.941
34.948,34.938
34.943,34.934
34.938,34.929
34.932,34.922
34.927,34.914
34.921,34.903
34.914,34.891
34.907,34.876
34.899,34.86
34.892,34.842
34.885,34.824
34.88,34.806
34.875,34.79
34.873,34.777
34.871,34.768
34.87,34.764
34.869,34.765
34.87,34.771
34.872,34.782
34.874,34.8
34.878,34.826
34.882,34.86
34.886,34.903
34.89,34.957
34.892,35.022
34.894,35.098
34.895,35.187
34.897,35.287
34.899,35.398
34.904,35.52
34.913,35.652
34.925,35.794
34.944,35.945
34.969,36.103
35.003,36.266
35.045,36.433
35.095,36.6
35.154,36.765
35.221,36.926
35.295,37.08
35.375,37.224
35.46,37.358
35.551,37.478
35.645,37.582
35.742,37.67
35.841,37.742
35.939,37.796
36.036,37.833
36.13,37.854
36.218,37.86
36.3,37.851
36.374,37.831
36.44,37.801
36.497,37.762
36.545,37.716
36.583,37.665
36.613,37.611
36.633,37.554
36.645,37.496
36.647,37.437
36.642,37.379
36.631,37.323
36.614,37.268
36.593,37.216
36.57,37.167
36.545,37.121
36.518,37.078
36.491,37.038
36.462,37
36.432,36.963
36.403,36.928
36.374,36.893
36.346,36.859
36.319,36.825
36.293,36.792
36.269,36.757
36.244,36.722
36.22,36.685
36.196,36.646
36.171,36.605
36.147,36.561
36.122,36.516
36.098,36.47
36.074,36.422
36.05,36.373
36.025,36.324
35.998,36.276
35.969,36.228
35.939,36.182
35.908,36.139
35.877,36.099
35.848,36.064
35.82,36.032
35.793,36.005
35.77,35.982
35.748,35.964
35.728,35.949
35.711,35.937
35.697,35.93
35.685,35.926
35.677,35.926
35.67,35.93
35.665,35.937
35.661,35.947
35.658,35.96
35.657,35.976
35.657,35.993
35.658,36.013
35.662,36.034
35.667,36.055
35.675,36.076
35.685,36.097
35.697,36.118
35.71,36.139
35.724,36.157
35.739,36.174
35.755,36.188
35.77,36.2
35.784,36.208
35.798,36.214
35.812,36.217
35.825,36.218
35.838,36.215
35.851,36.211
35.863,36.204
35.875,36.196
35.887,36.185
35.897,36.173
35.905,36.159
35.912,36.142
35.917,36.125
35.92,36.106
35.921,36.087
35.92,36.066
35.916,36.045
35.909,36.022
35.899,35.998
35.886,35.972
35.871,35.946
35.852,35.918
35.833,35.889
35.812,35.86
35.792,35.831
35.771,35.803
35.751,35.775
35.732,35.749
35.712,35.723
35.694,35.699
35.675,35.676
35.658,35.654
35.641,35.634
35.625,35.616
35.609,35.598
35.593,35.582
35.576,35.566
35.558,35.55
35.539,35.535
35.519,35.519
35.5,35.502
35.483,35.485
35.466,35.467
35.449,35.448
35.433,35.429
35.416,35.409
35.4,35.389
35.383,35.369
35.366,35.348
35.351,35.327
35.337,35.307
35.324,35.286
35.311,35.266
35.298,35.247
35.285,35.228
35.271,35.211
35.258,35.195
35.244,35.18
35.231,35.167
35.217,35.155
35.203,35.144
35.189,35.135
35.174,35.126
35.159,35.118
35.144,35.111
35.13,35.104
35.118,35.097
35.108,35.09
35.101,35.082
35.095,35.074
35.091,35.066
35.087,35.057
35.083,35.048
35.079,35.038
35.074,35.027
35.067,35.017
35.06,35.006
35.053,34.996
35.045,34.987
35.038,34.978
35.031,34.969
35.024,34.962
35.02,34.955
35.016,34.948
35.014,34.942
35.014,34.937
35.016,34.932
35.018,34.929
35.02,34.929
35.021,34.931
35.022,34.938
35.023,34.949
35.023,34.968
35.024,34.995
35.024,35.032
35.024,35.081
35.024,35.142
35.023,35.217
35.02,35.307
35.016,35.411
35.011,35.53
35.005,35.663
34.999,35.809
34.992,35.967
34.986,36.134
34.979,36.307
34.971,36.483
34.963,36.66
34.955,36.834
34.948,37.001
34.94,37.158
34.934,37.301
34.928,37.429
34.922,37.541
34.917,37.636
34.913,37.714
34.908,37.776
34.905,37.823
34.901,37.855
34.896,37.873
34.892,37.879
34.887,37.875
34.881,37.861
34.876,37.838
34.871,37.808
34.868,37.772
34.867,37.731
34.868,37.686
34.873,37.637
34.882,37.586
34.894,37.532
34.911,37.478
34.934,37.423
34.962,37.368
34.998,37.314
35.041,37.261
35.092,37.209
35.151,37.159
35.218,37.111
35.292,37.066
35.374,37.023
35.462,36.983
35.555,36.946
35.653,36.91
35.754,36.876
35.856,36.842
35.958,36.808
36.056,36.774
36.15,36.739
36.237,36.702
36.317,36.664
36.389,36.624
36.453,36.583
36.508,36.541
36.553,36.497
36.588,36.451
36.613,36.405
36.63,36.359
36.639,36.314
36.641,36.271
36.637,36.23
36.628,36.192
36.613,36.157
36.594,36.125
36.57,36.097
36.543,36.073
36.512,36.054
36.48,36.039
36.447,36.029
36.414,36.024
36.38,36.024
36.347,36.028
36.315,36.035
36.283,36.045
36.252,36.057
36.221,36.072
36.191,36.087
36.162,36.104
36.135,36.121
36.109,36.138
36.086,36.155
36.064,36.172
36.044,36.19
36.024,36.207
36.004,36.223
35.984,36.238
35.964,36.251
35.944,36.263
35.923,36.271
35.903,36.277
35.883,36.28
35.862,36.28
35.84,36.278
35.817,36.273
35.792,36.266
35.767,36.257
35.742,36.247
35.719,36.235
35.697,36.222
35.677,36.208
35.659,36.193
35.643,36.177
35.629,36.16
35.618,36.142
35.61,36.121
35.607,36.098
35.608,36.073
35.611,36.047
35.618,36.02
35.626,35.992
35.636,35.963
35.646,35.933
35.657,35.903
35.668,35.873
35.681,35.842
35.695,35.811
35.711,35.779
35.728,35.747
35.747,35.714
35.767,35.68
35.786,35.647
35.805,35.615
35.823,35.583
35.84,35.553
35.857,35.523
35.872,35.496
35.886,35.47
35.898,35.447
35.907,35.425
35.912,35.404
35.914,35.385
35.912,35.367
35.908,35.349
35.901,35.332
35.893,35.315
35.882,35.299
35.87,35.283
35.856,35.267
35.842,35.251
35.826,35.233
35.811,35.216
35.795,35.197
35.781,35.177
35.767,35.157
35.754,35.137
35.74,35.117
35.727,35.096
35.713,35.077
35.699,35.058
35.684,35.04
35.667,35.023
35.649,35.007
35.629,34.992
35.608,34.979
35.586,34.967
35.564,34.957
35.542,34.949
35.52,34.942
35.499,34.937
35.478,34.932
35.457,34.929
35.436,34.926
35.415,34.923
35.394,34.92
35.374,34.917
35.355,34.914
35.337,34.91
35.32,34.905
35.305,34.899
35.292,34.892
35.279,34.884
35.268,34.876
35.258,34.867
35.249,34.858
35.242,34.849
35.235,34.84
35.228,34.831
35.22,34.823
35.211,34.816
35.202,34.811
35.192,34.808
35.182,34.809
35.172,34.814
35.164,34.825
35.157,34.842
35.15,34.868
35.144,34.902
35.139,34.948
35.133,35.005
35.128,35.075
35.124,35.158
35.12,35.256
35.117,35.367
35.112,35.491
35.107,35.626
35.099,35.772
35.09,35.927
35.079,36.088
35.069,36.252
35.059,36.418
35.05,36.583
35.042,36.743
35.037,36.897
35.032,37.042
35.027,37.176
35.023,37.296
35.019,37.402
35.016,37.492
35.014,37.567
35.012,37.625
35.011,37.669
35.01,37.697
35.01,37.71
35.009,37.711
35.007,37.699
35.006,37.677
35.004,37.646
35.002,37.609
35,37.566
34.998,37.52
34.995,37.47
34.991,37.419
34.986,37.368
34.98,37.316
34.973,37.266
34.965,37.216
34.955,37.169
34.945,37.123
34.934,37.078
34.923,37.036
34.912,36.995
34.901,36.956
34.891,36.919
34.881,36.882
34.873,36.847
34.865,36.813
34.859,36.779
34.854,36.745
34.849,36.711
34.845,36.676
34.842,36.64
34.838,36.603
34.834,36.564
34.83,36.524
34.826,36.482
34.824,36.44
34.823,36.397
34.825,36.354
34.832,36.312
34.844,36.271
34.862,36.231
34.889,36.192
34.924,36.155
34.967,36.12
35.02,36.087
35.082,36.057
35.152,36.031
35.229,36.01
35.314,35.993
35.404,35.981
35.499,35.975
35.597,35.974
35.698,35.98
35.8,35.991
35.899,36.007
35.994,36.029
36.082,36.055
36.164,36.084
36.238,36.115
36.303,36.146
36.359,36.177
36.406,36.206
36.444,36.232
36.472,36.255
36.491,36.273
36.501,36.287
36.503,36.297
36.496,36.303
36.483,36.305
36.464,36.305
36.441,36.302
36.413,36.298
36.383,36.293
36.35,36.288
36.316,36.284
36.283,36.28
36.249,36.277
36.217,36.273
36.186,36.27
36.156,36.267
36.127,36.263
36.099,36.259
36.071,36.253
36.044,36.245
36.018,36.234
35.992,36.222
35.967,36.206
35.943,36.188
35.919,36.166
35.895,36.141
35.87,36.114
35.846,36.086
35.82,36.056
35.794,36.024
35.766,35.992
35.737,35.96
35.706,35.928
35.674,35.897
35.64,35.867
35.606,35.84
35.573,35.814
35.541,35.791
35.511,35.77
35.484,35.75
35.46,35.731
35.44,35.711
35.424,35.69
35.412,35.667
35.404,35.644
35.4,35.619
35.401,35.593
35.407,35.567
35.417,35.541
35.43,35.515
35.444,35.491
35.458,35.468
35.473,35.449
35.487,35.432
35.503,35.417
35.519,35.405
35.535,35.393
35.553,35.382
35.572,35.37
35.59,35.357
35.609,35.343
35.627,35.328
35.644,35.312
35.66,35.296
35.675,35.28
35.69,35.264
35.704,35.248
35.717,35.233
35.729,35.22
35.739,35.207
35.747,35.196
35.752,35.186
35.755,35.177
35.757,35.168
35.757,35.16
35.758,35.153
35.758,35.146
35.757,35.139
35.756,35.131
35.753,35.122
35.748,35.114
35.74,35.105
35.73,35.096
35.717,35.088
35.702,35.08
35.685,35.073
35.667,35.066
35.648,35.06
35.629,35.054
35.61,35.049
35.591,35.044
35.573,35.038
35.557,35.032
35.542,35.025
35.527,35.019
35.512,35.013
35.496,35.009
35.478,35.008
35.459,35.012
35.438,35.023
35.417,35.043
35.396,35.073
35.376,35.115
35.357,35.171
35.339,35.241
35.321,35.325
35.305,35.425
35.29,35.538
35.275,35.665
35.263,35.802
35.251,35.95
35.242,36.104
35.233,36.264
35.225,36.426
35.216,36.589
35.208,36.749
35.199,36.904
35.189,37.052
35.179,37.189
35.166,37.314
35.153,37.426
35.138,37.522
35.123,37.603
35.108,37.669
35.094,37.719
35.082,37.753
35.071,37.773
35.063,37.779
35.057,37.772
35.052,37.754
35.05,37.726
35.049,37.69
35.05,37.647
35.051,37.599
35.052,37.548
35.055,37.493
35.057,37.437
35.059,37.381
35.061,37.324
35.063,37.266
35.064,37.209
35.065,37.153
35.065,37.097
35.066,37.043
35.065,36.99
35.063,36.939
35.058,36.889
35.053,36.841
35.046,36.796
35.037,36.754
35.029,36.715
35.019,36.677
35.01,36.641
35.001,36.607
34.991,36.573
34.982,36.539
34.974,36.505
34.967,36.47
34.96,36.433
34.955,36.395
34.95,36.355
34.946,36.312
34.942,36.268
34.937,36.222
34.93,36.176
34.923,36.13
34.915,36.084
34.908,36.039
34.901,35.997
34.897,35.957
34.896,35.922
34.898,35.892
34.906,35.867
34.919,35.849
34.938,35.838
34.965,35.832
35.001,35.833
35.045,35.839
35.098,35.85
35.159,35.866
35.228,35.887
35.304,35.911
35.384,35.937
35.468,35.966
35.555,35.995
35.643,36.026
35.733,36.056
35.822,36.085
35.911,36.112
35.997,36.138
36.08,36.16
36.158,36.181
36.231,36.198
36.298,36.212
36.359,36.222
36.413,36.229
36.459,36.232
36.497,36.232
36.526,36.228
36.547,36.222
36.559,36.215
36.563,36.205
36.558,36.195
36.547,36.184
36.531,36.172
36.51,36.16
36.488,36.146
36.463,36.131
36.437,36.114
36.41,36.097
36.381,36.077
36.352,36.056
36.324,36.034
36.296,36.01
36.269,35.984
36.243,35.957
36.218,35.928
36.192,35.897
36.166,35.865
36.139,35.831
36.111,35.798
36.083,35.765
36.056,35.733
36.028,35.703
35.999,35.675
35.97,35.649
35.939,35.626
35.906,35.604
35.871,35.584
35.835,35.566
35.798,35.548
35.762,35.531
35.727,35.514
35.694,35.498
35.662,35.482
35.633,35.465
35.607,35.447
35.583,35.429
35.562,35.409
35.544,35.388
35.529,35.366
35.516,35.344
35.507,35.32
35.499,35.297
35.494,35.274
35.491,35.253
35.491,35.233
35.493,35.215
35.497,35.2
35.503,35.186
35.511,35.175
35.522,35.167
35.534,35.16
35.548,35.156
35.564,35.152
35.581,35.148
35.599,35.145
35.618,35.142
35.637,35.139
35.656,35.138
35.673,35.136
35.688,35.135
35.702,35.134
35.714,35.133
35.724,35.131
35.733,35.129
35.741,35.125
35.747,35.119
35.752,35.113
35.755,35.104
35.757,35.094
35.758,35.083
35.759,35.071
35.76,35.056
35.761,35.041
35.761,35.024
35.76,35.007
35.756,34.99
35.75,34.973
35.74,34.957
35.728,34.942
35.713,34.928
35.697,34.917
35.678,34.906
35.659,34.898
35.639,34.891
35.617,34.887
35.596,34.886
35.575,34.889
35.554,34.895
35.535,34.905
35.516,34.919
35.499,34.939
35.483,34.965
35.468,35
35.453,35.044
35.437,35.1
35.42,35.167
35.401,35.247
35.38,35.341
35.359,35.447
35.339,35.566
35.319,35.696
35.301,35.837
35.283,35.986
35.267,36.143
35.251,36.303
35.236,36.466
35.222,36.628
35.21,36.786
35.198,36.938
35.188,37.082
35.179,37.216
35.171,37.339
35.162,37.449
35.152,37.544
35.142,37.623
35.132,37.687
35.122,37.735
35.113,37.769
35.104,37.788
35.094,37.794
35.084,37.788
35.074,37.771
35.063,37.743
35.053,37.706
35.043,37.661
35.035,37.61
35.026,37.553
35.018,37.494
35.01,37.432
35,37.371
34.99,37.31
34.981,37.25
34.971,37.193
34.963,37.139
34.956,37.089
34.95,37.042
34.945,37
34.94,36.961
34.936,36.926
34.931,36.893
34.927,36.862
34.925,36.831
34.924,36.8
34.925,36.767
34.928,36.734
34.931,36.698
34.934,36.659
34.937,36.618
34.938,36.575
34.938,36.531
34.937,36.485
34.934,36.438
34.931,36.392
34.926,36.347
34.919,36.304
34.912,36.264
34.904,36.226
34.895,36.192
34.887,36.162
34.879,36.135
34.871,36.112
34.863,36.092
34.856,36.075
34.848,36.061
34.841,36.048
34.835,36.037
34.829,36.028
34.824,36.02
34.822,36.015
34.822,36.012
34.826,36.013
34.835,36.016
34.848,36.024
34.868,36.035
34.893,36.05
34.926,36.066
34.966,36.085
35.013,36.104
35.069,36.124
35.133,36.145
35.204,36.166
35.282,36.186
35.367,36.205
35.456,36.223
35.549,36.239
35.646,36.253
35.744,36.264
35.844,36.272
35.944,36.277
36.042,36.278
36.139,36.276
36.231,36.27
36.319,36.262
36.401,36.251
36.475,36.238
36.54,36.223
36.595,36.207
36.641,36.188
36.676,36.169
36.702,36.148
36.718,36.128
36.726,36.107
36.725,36.086
36.718,36.065
36.706,36.044
36.69,36.024
36.67,36.004
36.649,35.985
36.626,35.965
36.602,35.946
36.578,35.927
36.553,35.907
36.527,35.887
36.5,35.867
36.472,35.845
36.444,35.823
36.415,35.799
36.388,35.775
36.362,35.75
36.338,35.724
36.315,35.698
36.294,35.673
36.272,35.648
36.251,35.623
36.228,35.598
36.205,35.574
36.182,35.55
36.159,35.527
36.135,35.504
36.111,35.482
36.086,35.462
36.059,35.442
36.032,35.424
36.004,35.406
35.976,35.39
35.949,35.374
35.924,35.359
35.9,35.345
35.879,35.331
35.859,35.317
35.841,35.304
35.825,35.29
35.81,35.276
35.796,35.261
35.785,35.245
35.776,35.229
35.77,35.214
35.767,35.199
35.766,35.185
35.766,35.173
35.768,35.161
35.77,35.151
35.772,35.142
35.777,35.135
35.784,35.13
35.793,35.127
35.804,35.125
35.816,35.124
35.828,35.123
35.841,35.122
35.853,35.12
35.865,35.117
35.877,35.113
35.889,35.108
35.901,35.103
35.912,35.097
35.923,35.091
35.934,35.086
35.943,35.081
35.95,35.076
35.956,35.071
35.96,35.066
35.962,35.061
35.961,35.057
35.957,35.052
35.952,35.048
35.944,35.044
35.934,35.039
35.923,35.033
35.911,35.026
35.898,35.018
35.885,35.008
35.872,34.996
35.859,34.984
35.845,34.972
35.833,34.96
35.82,34.95
35.807,34.942
35.794,34.938
35.781,34.938
35.767,34.945
35.751,34.96
35.735,34.985
35.718,35.022
35.701,35.071
35.684,35.135
35.666,35.214
35.649,35.308
35.632,35.416
35.615,35.538
35.599,35.673
35.582,35.818
35.566,35.972
35.549,36.133
35.533,36.296
35.518,36.46
35.502,36.621
35.486,36.777
35.47,36.925
35.453,37.062
35.435,37.188
35.416,37.3
35.397,37.398
35.378,37.481
35.359,37.55
35.34,37.604
35.323,37.644
35.306,37.671
35.29,37.685
35.273,37.687
35.256,37.678
35.239,37.659
35.223,37.632
35.209,37.598
35.195,37.558
35.181,37.514
35.168,37.466
35.155,37.416
35.144,37.364
35.134,37.311
35.126,37.257
35.12,37.203
35.116,37.151
35.112,37.099
35.11,37.05
35.107,37.002
35.105,36.956
35.103,36.913
35.101,36.871
35.1,36.832
35.098,36.795
35.095,36.759
35.091,36.725
35.085,36.691
35.077,36.658
35.068,36.625
35.059,36.591
35.049,36.557
35.041,36.522
35.033,36.486
35.027,36.449
35.021,36.411
35.017,36.371
35.012,36.33
35.008,36.289
35.005,36.248
35.002,36.207
35.001,36.166
35,36.127
34.998,36.089
34.997,36.054
34.994,36.022
34.989,35.994
34.984,35.97
34.977,35.95
34.97,35.934
34.962,35.924
34.954,35.918
34.944,35.917
34.934,35.921
34.924,35.93
34.915,35.944
34.907,35.962
34.9,35.983
34.894,36.006
34.89,36.031
34.885,36.056
34.88,36.082
34.874,36.108
34.867,36.133
34.861,36.157
34.856,36.178
34.852,36.196
34.851,36.211
34.853,36.222
34.858,36.231
34.868,36.239
34.884,36.245
34.907,36.25
34.937,36.254
34.976,36.259
35.025,36.263
35.082,36.267
35.148,36.269
35.223,36.269
35.305,36.267
35.395,36.262
35.49,36.253
35.59,36.242
35.693,36.227
35.799,36.21
35.905,36.191
36.01,36.169
36.112,36.145
36.21,36.12
36.302,36.092
36.389,36.064
36.467,36.035
36.538,36.005
36.6,35.975
36.653,35.946
36.696,35.916
36.731,35.887
36.756,35.86
36.773,35.834
36.782,35.809
36.783,35.785
36.776,35.763
36.763,35.741
36.743,35.721
36.72,35.7
36.694,35.68
36.666,35.661
36.638,35.641
36.609,35.621
36.58,35.6
36.551,35.579
36.522,35.558
36.493,35.536
36.465,35.515
36.437,35.492
36.41,35.47
36.384,35.448
36.36,35.426
36.336,35.405
36.313,35.384
36.291,35.363
36.269,35.345
36.247,35.327
36.224,35.311
36.201,35.296
36.177,35.282
36.153,35.269
36.127,35.256
36.1,35.245
36.071,35.235
36.04,35.227
36.007,35.219
35.973,35.212
35.939,35.205
35.907,35.198
35.876,35.191
35.848,35.184
35.823,35.177
35.799,35.171
35.777,35.165
35.758,35.16
35.741,35.155
35.727,35.15
35.716,35.146
35.708,35.141
35.703,35.136
35.701,35.131
35.7,35.126
35.702,35.121
35.706,35.117
35.712,35.112
35.722,35.107
35.734,35.101
35.75,35.095
35.767,35.088
35.786,35.081
35.805,35.075
35.823,35.069
35.84,35.062
35.855,35.056
35.869,35.05
35.881,35.043
35.892,35.037
35.901,35.03
35.908,35.024
35.914,35.019
35.918,35.013
35.92,35.007
35.921,35.001
35.921,34.994
35.921,34.986
35.92,34.976
35.919,34.967
35.916,34.956
35.911,34.946
35.904,34.935
35.894,34.925
35.884,34.915
35.872,34.907
35.859,34.902
35.845,34.901
35.829,34.906
35.811,34.917
35.792,34.936
35.772,34.966
35.752,35.007
35.732,35.062
35.712,35.131
35.694,35.214
35.678,35.312
35.662,35.425
35.646,35.551
35.632,35.688
35.618,35.836
35.604,35.991
35.59,36.151
35.576,36.313
35.562,36.474
35.548,36.632
35.533,36.783
35.517,36.925
35.499,37.056
35.48,37.175
35.46,37.28
35.439,37.371
35.418,37.447
35.396,37.508
35.375,37.554
35.354,37.585
35.333,37.603
35.313,37.608
35.294,37.602
35.276,37.585
35.258,37.559
35.241,37.525
35.226,37.483
35.212,37.435
35.199,37.384
35.187,37.329
35.176,37.272
35.167,37.215
35.159,37.158
35.152,37.1
35.147,37.044
35.142,36.988
35.136,36.934
35.131,36.882
35.125,36.831
35.117,36.783
35.109,36.736
35.099,36.692
35.089,36.651
35.077,36.612
35.066,36.575
35.054,36.54
35.044,36.507
35.035,36.475
35.027,36.444
35.021,36.412
35.017,36.379
35.014,36.344
35.012,36.307
35.011,36.269
35.011,36.23
35.01,36.189
35.009,36.148
35.007,36.107
35.002,36.067
34.995,36.028
34.986,35.99
34.974,35.955
34.961,35.922
34.949,35.893
34.937,35.867
34.926,35.846
34.918,35.829
34.91,35.818
34.902,35.813
34.894,35.812
34.886,35.817
34.879,35.828
34.873,35.842
34.868,35.862
34.862,35.885
34.856,35.91
34.849,35.937
34.84,35.965
34.83,35.994
34.819,36.023
34.808,36.051
34.799,36.078
34.79,36.104
34.782,36.129
34.774,36.151
34.768,36.172
34.763,36.19
34.759,36.204
34.759,36.216
34.761,36.225
34.767,36.231
34.776,36.235
34.788,36.235
34.805,36.233
34.828,36.229
34.856,36.223
34.893,36.215
34.939,36.206
34.994,36.195
35.057,36.184
35.13,36.171
35.21,36.158
35.296,36.142
35.389,36.125
35.486,36.105
35.588,36.084
35.692,36.06
35.797,36.033
35.902,36.005
36.003,35.976
36.1,35.945
36.191,35.914
36.274,35.883
36.349,35.852
36.415,35.822
36.472,35.794
36.52,35.768
36.558,35.744
36.588,35.722
36.608,35.703
36.621,35.686
36.626,35.67
36.624,35.655
36.615,35.641
36.601,35.627
36.582,35.612
36.56,35.598
36.534,35.582
36.507,35.566
36.479,35.55
36.449,35.532
36.42,35.513
36.39,35.493
36.361,35.473
36.332,35.452
36.305,35.431
36.278,35.409
36.251,35.389
36.225,35.369
36.198,35.351
36.172,35.335
36.144,35.321
36.115,35.309
36.086,35.299
36.055,35.29
36.023,35.282
35.991,35.275
35.958,35.269
35.925,35.262
35.892,35.255
35.859,35.247
35.825,35.239
35.791,35.23
35.758,35.22
35.726,35.211
35.696,35.2
35.668,35.19
35.644,35.18
35.622,35.17
35.603,35.161
35.585,35.152
35.571,35.143
35.558,35.136
35.548,35.129
35.541,35.123
35.537,35.118
35.537,35.114
35.54,35.11
35.547,35.106
35.556,35.102
35.566,35.097
35.578,35.092
35.59,35.086
35.603,35.079
35.617,35.072
35.632,35.063
35.649,35.054
35.666,35.044
35.683,35.033
35.7,35.022
35.715,35.011
35.729,35.001
35.743,34.992
35.757,34.984
35.771,34.978
35.785,34.975
35.799,34.975
35.812,34.978
35.824,34.986
35.833,34.999
35.84,35.018
35.845,35.044
35.847,35.078
35.847,35.121
35.845,35.173
35.841,35.235
35.834,35.308
35.825,35.392
35.814,35.488
35.802,35.595
35.788,35.712
35.774,35.839
35.759,35.973
35.743,36.112
35.725,36.255
35.706,36.399
35.686,36.542
35.665,36.68
35.644,36.812
35.622,36.935
35.6,37.048
35.577,37.149
35.554,37.236
35.531,37.31
35.508,37.369
35.485,37.413
35.463,37.443
35.443,37.458
35.423,37.461
35.405,37.451
35.389,37.431
35.374,37.403
35.36,37.368
35.346,37.327
35.331,37.283
35.315,37.236
35.299,37.187
35.28,37.136
35.26,37.085
35.239,37.033
35.218,36.982
35.197,36.93
35.176,36.878
35.156,36.826
35.136,36.776
35.117,36.726
35.099,36.677
35.081,36.631
35.065,36.585
35.051,36.542
35.039,36.501
35.03,36.463
35.022,36.425
35.015,36.389
35.009,36.354
35.002,36.317
34.996,36.28
34.989,36.241
34.984,36.201
34.978,36.158
34.972,36.114
34.966,36.068
34.959,36.021
34.953,35.974
34.946,35.928
34.94,35.884
34.935,35.842
34.93,35.804
34.925,35.77
34.921,35.742
34.915,35.719
34.91,35.702
34.904,35.691
34.898,35.685
34.892,35.685
34.887,35.689
34.883,35.699
34.879,35.712
34.876,35.728
34.872,35.747
34.868,35.768
34.864,35.79
34.86,35.815
34.857,35.841
34.855,35.867
34.853,35.892
34.852,35.917
34.85,35.941
34.847,35.962
34.843,35.982
34.837,35.999
34.831,36.013
34.825,36.025
34.82,36.034
34.815,36.041
34.81,36.046
34.806,36.048
34.801,36.049
34.798,36.047
34.796,36.043
34.798,36.036
34.804,36.027
34.815,36.015
34.832,36.002
34.854,35.986
34.884,35.968
34.922,35.949
34.967,35.929
35.021,35.909
35.083,35.887
35.152,35.866
35.229,35.844
35.312,35.822
35.399,35.801
35.49,35.779
35.582,35.758
35.675,35.736
35.767,35.715
35.857,35.693
35.944,35.671
36.025,35.649
36.099,35.626
36.166,35.604
36.225,35.582
36.274,35.56
36.315,35.54
36.347,35.522
36.37,35.504
36.386,35.489
36.394,35.474
36.395,35.461
36.391,35.449
36.382,35.437
36.368,35.425
36.351,35.411
36.33,35.397
36.307,35.38
36.281,35.362
36.253,35.343
36.225,35.322
36.196,35.3
36.167,35.278
36.138,35.256
36.111,35.234
36.083,35.214
36.057,35.194
36.03,35.176
36.002,35.16
35.974,35.145
35.944,35.131
35.912,35.119
35.879,35.109
35.843,35.099
35.805,35.089
35.765,35.079
35.725,35.069
35.683,35.059
35.642,35.05
35.602,35.041
35.562,35.032
35.524,35.024
35.487,35.016
35.452,35.009
35.419,35.003
35.388,34.997
35.361,34.993
35.337,34.99
35.316,34.988
35.299,34.986
35.285,34.985
35.274,34.984
35.265,34.982
35.258,34.979
35.253,34.974
35.252,34.968
35.253,34.961
35.258,34.953
35.268,34.945
35.28,34.936
35.295,34.927
35.311,34.919
35.329,34.912
35.348,34.907
35.37,34.903
35.393,34.899
35.417,34.897
35.441,34.897
35.463,34.898
35.483,34.9
35.499,34.904
35.512,34.909
35.523,34.916
35.532,34.923
35.54,34.931
35.546,34.941
35.552,34.954
35.558,34.971
35.562,34.994
35.567,35.024
35.57,35.065
35.573,35.117
35.576,35.184
35.577,35.265
35.577,35.361
35.574,35.471
35.567,35.595
35.558,35.731
35.547,35.877
35.533,36.032
35.518,36.191
35.502,36.352
35.486,36.512
35.468,36.667
35.45,36.815
35.431,36.952
35.412,37.077
35.393,37.187
35.375,37.281
35.358,37.357
35.342,37.417
35.326,37.459
35.312,37.485
35.298,37.497
35.284,37.496
35.269,37.483
35.254,37.46
35.237,37.428
35.218,37.39
35.199,37.346
35.179,37.298
35.159,37.247
35.14,37.194
35.122,37.14
35.106,37.087
35.091,37.034
35.076,36.982
35.061,36.931
35.047,36.882
35.032,36.835
35.018,36.79
35.005,36.747
34.991,36.706
34.977,36.666
34.963,36.628
34.949,36.59
34.934,36.554
34.919,36.518
34.904,36.484
34.89,36.451
34.876,36.419
34.862,36.388
34.849,36.357
34.837,36.326
34.824,36.295
34.813,36.263
34.802,36.23
34.791,36.196
34.782,36.161
34.773,36.125
34.765,36.088
34.757,36.05
34.749,36.011
34.742,35.973
34.736,35.936
34.732,35.901
34.73,35.868
34.729,35.838
34.728,35.813
34.728,35.791
34.727,35.775
34.726,35.763
34.724,35.757
34.723,35.755
34.722,35.758
34.72,35.765
34.717,35.774
34.712,35.786
34.707,35.801
34.7,35.817
34.693,35.834
34.684,35.853
34.676,35.871
34.668,35.89
34.659,35.909
34.65,35.928
34.64,35.947
34.631,35.966
34.622,35.984
34.614,36.001
34.608,36.017
34.602,36.031
34.598,36.042
34.595,36.051
34.593,36.057
34.591,36.061
34.591,36.061
34.592,36.058
34.596,36.051
34.603,36.041
34.614,36.028
34.63,36.012
34.65,35.995
34.677,35.975
34.71,35.955
34.751,35.933
34.801,35.911
34.859,35.887
34.926,35.864
35.001,35.84
35.084,35.817
35.173,35.795
35.268,35.774
35.366,35.753
35.468,35.733
35.572,35.713
35.676,35.694
35.778,35.676
35.877,35.657
35.973,35.637
36.064,35.617
36.149,35.596
36.229,35.574
36.302,35.551
36.368,35.527
36.426,35.503
36.475,35.477
36.515,35.451
36.547,35.425
36.57,35.4
36.587,35.376
36.596,35.352
36.599,35.331
36.596,35.31
36.587,35.292
36.573,35.275
36.555,35.26
36.533,35.246
36.508,35.234
36.482,35.223
36.455,35.213
36.428,35.203
36.4,35.194
36.371,35.184
36.342,35.175
36.312,35.165
36.282,35.156
36.252,35.147
36.222,35.139
36.192,35.131
36.162,35.124
36.132,35.116
36.102,35.109
36.073,35.102
36.043,35.094
36.014,35.086
35.986,35.078
35.959,35.069
35.933,35.06
35.907,35.05
35.881,35.041
35.854,35.032
35.827,35.023
35.8,35.014
35.774,35.006
35.749,34.998
35.725,34.992
35.703,34.986
35.682,34.981
35.661,34.977
35.642,34.973
35.624,34.969
35.607,34.966
35.593,34.963
35.58,34.96
35.57,34.957
35.562,34.954
35.555,34.951
35.55,34.947
35.547,34.943
35.546,34.938
35.548,34.933
35.553,34.928
35.562,34.922
35.572,34.917
35.584,34.912
35.598,34.909
35.612,34.906
35.627,34.903
35.643,34.901
35.66,34.899
35.678,34.898
35.697,34.897
35.715,34.898
35.732,34.903
35.747,34.911
35.759,34.925
35.768,34.945
35.773,34.974
35.776,35.013
35.776,35.062
35.774,35.123
35.771,35.197
35.766,35.285
35.76,35.387
35.754,35.503
35.747,35.631
35.74,35.769
35.733,35.917
35.726,36.071
35.718,36.228
35.709,36.386
35.699,36.542
35.687,36.692
35.674,36.835
35.66,36.967
35.644,37.087
35.626,37.192
35.607,37.281
35.586,37.353
35.563,37.407
35.54,37.444
35.516,37.464
35.492,37.47
35.469,37.463
35.448,37.443
35.428,37.414
35.409,37.377
35.391,37.334
35.373,37.286
35.356,37.236
35.339,37.185
35.322,37.133
35.306,37.081
35.29,37.029
35.275,36.979
35.259,36.93
35.243,36.882
35.227,36.835
35.21,36.789
35.193,36.745
35.177,36.702
35.161,36.661
35.146,36.622
35.131,36.583
35.116,36.547
35.101,36.513
35.086,36.48
35.072,36.448
35.058,36.417
35.046,36.386
35.034,36.355
35.022,36.323
35.01,36.289
34.998,36.255
34.986,36.22
34.975,36.185
34.964,36.148
34.953,36.112
34.942,36.075
34.931,36.039
34.921,36.004
34.911,35.97
34.901,35.936
34.893,35.905
34.885,35.875
34.877,35.848
34.869,35.825
34.862,35.804
34.854,35.787
34.847,35.774
34.842,35.766
34.837,35.761
34.834,35.76
34.833,35.763
34.832,35.769
34.832,35.778
34.832,35.789
34.831,35.803
34.83,35.819
34.829,35.838
34.827,35.858
34.824,35.88
34.819,35.903
34.811,35.927
34.8,35.95
34.786,35.972
34.771,35.993
34.755,36.012
34.74,36.03
34.726,36.044
34.714,36.056
34.703,36.065
34.694,36.071
34.686,36.074
34.68,36.074
34.676,36.07
34.675,36.063
34.675,36.053
34.677,36.039
34.68,36.022
34.684,36.004
34.689,35.983
34.696,35.962
34.704,35.94
34.716,35.917
34.731,35.894
34.752,35.871
34.778,35.847
34.81,35.823
34.85,35.8
34.897,35.777
34.954,35.754
35.021,35.731
35.097,35.71
35.183,35.688
35.277,35.666
35.378,35.643
35.484,35.62
35.592,35.597
35.702,35.574
35.811,35.55
35.917,35.526
36.019,35.501
36.115,35.476
36.205,35.452
36.286,35.428
36.36,35.405
36.424,35.384
36.48,35.365
36.526,35.347
36.563,35.332
36.592,35.318
36.614,35.306
36.628,35.295
36.635,35.286
36.635,35.277
36.628,35.268
36.616,35.259
36.599,35.249
36.578,35.238
36.555,35.226
36.53,35.213
36.503,35.198
36.476,35.182
36.448,35.166
36.421,35.15
36.395,35.135
36.369,35.121
36.345,35.108
36.321,35.098
36.297,35.089
36.273,35.081
36.248,35.073
36.222,35.067
36.195,35.061
36.167,35.055
36.138,35.051
36.109,35.046
36.078,35.043
36.046,35.039
36.014,35.035
35.982,35.03
35.951,35.025
35.92,35.019
35.89,35.013
35.861,35.005
35.832,34.997
35.804,34.989
35.776,34.979
35.747,34.97
35.72,34.961
35.693,34.952
35.669,34.944
35.647,34.936
35.627,34.929
35.609,34.922
35.593,34.915
35.579,34.909
35.568,34.904
35.558,34.898
35.553,34.893
35.55,34.887
35.551,34.882
35.555,34.877
35.562,34.873
35.57,34.869
35.581,34.866
35.594,34.865
35.609,34.865
35.626,34.867
35.645,34.873
35.665,34.883
35.687,34.899
35.708,34.922
35.728,34.954
35.747,34.995
35.764,35.048
35.78,35.112
35.793,35.19
35.805,35.282
35.813,35.386
35.818,35.503
35.819,35.631
35.817,35.768
35.811,35.912
35.804,36.06
35.794,36.21
35.783,36.359
35.772,36.506
35.759,36.646
35.745,36.778
35.73,36.9
35.715,37.011
35.699,37.108
35.683,37.19
35.667,37.257
35.652,37.308
35.636,37.342
35.621,37.361
35.605,37.365
35.59,37.356
35.574,37.333
35.558,37.3
35.542,37.257
35.526,37.207
35.51,37.151
35.493,37.091
35.477,37.03
35.46,36.968
35.442,36.907
35.424,36.848
35.405,36.791
35.385,36.739
35.365,36.691
35.343,36.647
35.322,36.607
35.299,36.57
35.277,36.536
35.255,36.503
35.232,36.472
35.21,36.442
35.187,36.413
35.165,36.385
35.143,36.356
35.123,36.327
35.104,36.296
35.087,36.264
35.071,36.231
35.056,36.196
35.041,36.158
35.027,36.12
35.012,36.079
34.998,36.038
34.984,35.995
34.971,35.952
34.958,35.91
34.946,35.868
34.935,35.829
34.922,35.792
34.909,35.758
34.896,35.728
34.882,35.701
34.869,35.677
34.857,35.658
34.847,35.644
34.838,35.634
34.831,35.628
34.825,35.627
34.82,35.629
34.816,35.636
34.813,35.645
34.81,35.658
34.808,35.672
34.805,35.689
34.802,35.706
34.799,35.725
34.795,35.745
34.79,35.765
34.786,35.785
34.782,35.805
34.779,35.825
34.777,35.844
34.776,35.862
34.776,35.879
34.774,35.893
34.772,35.905
34.768,35.914
34.763,35.921
34.756,35.925
34.75,35.926
34.743,35.925
34.736,35.922
34.729,35.917
34.721,35.91
34.712,35.901
34.703,35.89
34.693,35.877
34.684,35.861
34.675,35.844
34.667,35.826
34.66,35.807
34.654,35.786
34.649,35.766
34.645,35.745
34.64,35.726
34.637,35.706
34.633,35.686
34.629,35.666
34.624,35.646
34.619,35.625
34.614,35.605
34.61,35.584
34.608,35.563
34.608,35.542
34.611,35.52
34.619,35.498
34.63,35.475
34.648,35.451
34.673,35.426
34.707,35.399
34.749,35.373
34.8,35.345
34.86,35.318
34.927,35.29
35.002,35.264
35.084,35.24
35.172,35.217
35.267,35.198
35.366,35.181
35.47,35.166
35.577,35.154
35.685,35.143
35.793,35.133
35.898,35.124
36,35.116
36.097,35.108
36.187,35.1
36.271,35.092
36.347,35.084
36.414,35.077
36.471,35.069
36.517,35.061
36.554,35.053
36.581,35.045
36.599,35.035
36.609,35.025
36.611,35.013
36.607,35
36.598,34.985
36.585,34.97
36.566,34.954
36.543,34.939
36.516,34.925
36.485,34.911
36.452,34.899
36.418,34.887
36.383,34.877
36.348,34.868
36.313,34.861
36.278,34.856
36.244,34.853
36.21,34.851
36.177,34.852
36.145,34.854
36.116,34.857
36.088,34.862
36.062,34.866
36.035,34.87
36.008,34.873
35.98,34.873
35.95,34.872
35.918,34.868
35.884,34.861
35.849,34.853
35.813,34.842
35.775,34.831
35.737,34.819
35.699,34.808
35.66,34.798
35.624,34.788
35.589,34.781
35.557,34.776
35.529,34.773
35.505,34.774
35.484,34.778
35.467,34.786
35.453,34.8
35.441,34.819
35.432,34.845
35.425,34.878
35.42,34.92
35.418,34.97
35.418,35.031
35.421,35.102
35.426,35.185
35.433,35.278
35.443,35.383
35.455,35.499
35.468,35.624
35.483,35.757
35.499,35.896
35.515,36.039
35.532,36.183
35.548,36.326
35.564,36.465
35.58,36.598
35.594,36.722
35.607,36.836
35.618,36.937
35.628,37.024
35.635,37.097
35.642,37.155
35.647,37.198
35.652,37.226
35.656,37.24
35.659,37.241
35.662,37.23
35.662,37.208
35.661,37.178
35.658,37.139
35.652,37.093
35.644,37.042
35.635,36.987
35.625,36.928
35.613,36.866
35.599,36.802
35.585,36.738
35.569,36.673
35.552,36.61
35.536,36.548
35.519,36.489
35.503,36.433
35.488,36.381
35.472,36.332
35.456,36.286
35.44,36.244
35.423,36.205
35.406,36.168
35.39,36.134
35.373,36.101
35.356,36.068
35.339,36.036
35.32,36.003
35.3,35.97
35.279,35.934
35.257,35.898
35.234,35.859
35.211,35.82
35.189,35.779
35.167,35.738
35.145,35.697
35.123,35.657
35.1,35.618
35.076,35.582
35.054,35.547
35.032,35.516
35.011,35.489
34.992,35.467
34.974,35.449
34.958,35.436
34.942,35.429
34.927,35.426
34.912,35.43
34.898,35.438
34.886,35.45
34.875,35.466
34.866,35.484
34.857,35.504
34.85,35.525
34.842,35.545
34.834,35.564
34.826,35.581
34.817,35.596
34.807,35.608
34.798,35.619
34.788,35.628
34.778,35.637
34.767,35.646
34.757,35.655
34.746,35.666
34.736,35.677
34.725,35.689
34.715,35.701
34.706,35.711
34.697,35.721
34.69,35.729
34.684,35.735
34.68,35.739
34.677,35.741
34.675,35.741
34.673,35.738
34.672,35.732
34.671,35.723
34.669,35.712
34.668,35.698
34.666,35.682
34.666,35.665
34.665,35.645
34.665,35.625
34.665,35.603
34.665,35.58
34.664,35.555
34.662,35.53
34.66,35.505
34.656,35.479
34.65,35.453
34.642,35.428
34.632,35.402
34.619,35.377
34.606,35.353
34.592,35.33
34.578,35.307
34.565,35.285
34.553,35.262
34.542,35.24
34.532,35.218
34.523,35.197
34.515,35.176
34.509,35.155
34.506,35.134
34.507,35.114
34.512,35.094
34.521,35.076
34.533,35.059
34.549,35.043
34.569,35.029
34.595,35.016
34.627,35.003
34.667,34.992
34.715,34.981
34.772,34.971
34.837,34.961
34.911,34.952
34.992,34.943
35.081,34.935
35.176,34.927
35.277,34.92
35.382,34.913
35.488,34.906
35.594,34.899
35.698,34.893
35.797,34.886
35.89,34.878
35.976,34.869
36.054,34.86
36.124,34.85
36.185,34.839
36.237,34.827
36.28,34.816
36.314,34.805
36.339,34.794
36.357,34.785
36.367,34.778
36.371,34.77
36.369,34.764
36.362,34.757
36.351,34.751
36.336,34.744
36.318,34.738
36.296,34.731
36.272,34.724
36.244,34.718
36.215,34.712
36.183,34.706
36.151,34.701
36.117,34.697
36.083,34.695
36.049,34.693
36.015,34.694
35.981,34.695
35.948,34.698
35.915,34.703
35.884,34.71
35.853,34.72
35.822,34.734
35.792,34.754
35.76,34.781
35.728,34.815
35.695,34.859
35.661,34.912
35.626,34.977
35.59,35.053
35.552,35.14
35.515,35.239
35.476,35.349
35.439,35.468
35.402,35.596
35.367,35.728
35.334,35.865
35.303,36.001
35.275,36.136
35.251,36.266
35.23,36.39
35.212,36.504
35.199,36.608
35.19,36.699
35.184,36.778
35.181,36.842
35.182,36.894
35.185,36.932
35.191,36.957
35.2,36.971
35.211,36.973
35.226,36.966
35.243,36.951
35.263,36.928
35.284,36.899
35.307,36.865
35.329,36.827
35.352,36.785
35.374,36.741
35.395,36.694
35.417,36.646
35.438,36.596
35.458,36.545
35.477,36.495
35.495,36.445
35.511,36.396
35.525,36.347
35.537,36.3
35.547,36.254
35.554,36.21
35.56,36.166
35.563,36.124
35.565,36.082
35.564,36.04
35.561,35.997
35.556,35.954
35.55,35.91
35.543,35.866
35.535,35.822
35.525,35.779
35.515,35.735
35.503,35.692
35.49,35.65
35.476,35.608
35.462,35.567
35.448,35.528
35.432,35.49
35.415,35.455
35.397,35.422
35.376,35.392
35.353,35.366
35.328,35.343
35.302,35.325
35.277,35.311
35.253,35.301
35.23,35.297
35.21,35.297
35.191,35.303
35.174,35.314
35.159,35.33
35.144,35.351
35.131,35.377
35.119,35.407
35.107,35.44
35.096,35.474
35.084,35.508
35.072,35.543
35.058,35.576
35.043,35.608
35.026,35.638
35.009,35.664
34.991,35.688
34.974,35.708
34.958,35.725
34.942,35.739
34.926,35.749
34.91,35.757
34.895,35.761
34.879,35.762
34.864,35.761
34.85,35.757
34.836,35.752
34.823,35.746
34.812,35.738
34.803,35.729
34.795,35.718
34.788,35.706
34.782,35.692
34.776,35.676
34.771,35.66
34.764,35.642
34.758,35.624
34.752,35.604
34.747,35.583
34.743,35.562
34.74,35.539
34.739,35.516
34.738,35.491
34.737,35.465
34.736,35.438
34.735,35.41
34.732,35.383
34.729,35.356
34.724,35.33
34.717,35.306
34.708,35.283
34.696,35.262
34.683,35.243
34.67,35.226
34.658,35.211
34.647,35.198
34.638,35.185
34.63,35.173
34.625,35.16
34.621,35.147
34.618,35.133
34.618,35.118
34.62,35.102
34.624,35.087
34.631,35.07
34.64,35.054
34.653,35.038
34.668,35.023
34.686,35.009
34.709,34.995
34.737,34.982
34.772,34.971
34.815,34.96
34.866,34.951
34.926,34.943
34.993,34.936
35.068,34.931
35.15,34.927
35.237,34.924
35.33,34.924
35.427,34.924
35.527,34.927
35.628,34.93
35.729,34.934
35.827,34.937
35.921,34.94
36.009,34.943
36.089,34.944
36.161,34.945
36.226,34.945
36.282,34.944
36.332,34.944
36.374,34.944
36.409,34.944
36.436,34.945
36.456,34.946
36.468,34.948
36.473,34.95
36.471,34.952
36.464,34.954
36.453,34.955
36.437,34.956
36.416,34.956
36.392,34.955
36.365,34.952
36.336,34.946
36.305,34.938
36.273,34.928
36.241,34.918
36.209,34.907
36.177,34.897
36.145,34.887
36.113,34.881
36.08,34.876
36.047,34.876
36.014,34.879
35.981,34.888
35.948,34.903
35.914,34.925
35.88,34.957
35.845,34.998
35.809,35.05
35.772,35.114
35.735,35.192
35.697,35.282
35.659,35.385
35.621,35.5
35.583,35.627
35.545,35.763
35.507,35.908
35.468,36.058
35.43,36.211
35.393,36.364
35.357,36.515
35.325,36.66
35.296,36.797
35.271,36.924
35.248,37.039
35.23,37.141
35.215,37.228
35.204,37.3
35.198,37.356
35.197,37.397
35.202,37.422
35.211,37.433
35.224,37.43
35.242,37.415
35.263,37.389
35.285,37.354
35.309,37.31
35.333,37.261
35.356,37.207
35.379,37.149
35.4,37.09
35.42,37.03
35.44,36.972
35.46,36.915
35.479,36.86
35.496,36.809
35.512,36.761
35.527,36.716
35.54,36.673
35.551,36.633
35.562,36.594
35.57,36.558
35.577,36.522
35.582,36.487
35.585,36.453
35.584,36.419
35.58,36.386
35.572,36.353
35.561,36.32
35.547,36.287
35.531,36.252
35.515,36.217
35.498,36.181
35.481,36.145
35.464,36.109
35.447,36.073
35.429,36.037
35.411,36.002
35.391,35.967
35.372,35.934
35.353,35.901
35.333,35.871
35.314,35.841
35.294,35.812
35.274,35.784
35.254,35.758
35.234,35.734
35.215,35.712
35.196,35.692
35.178,35.674
35.16,35.66
35.142,35.649
35.124,35.642
35.105,35.638
35.085,35.638
35.064,35.643
35.043,35.651
35.022,35.663
35.001,35.679
34.982,35.698
34.964,35.72
34.946,35.744
34.93,35.769
34.915,35.795
34.901,35.821
34.89,35.845
34.88,35.867
34.871,35.885
34.863,35.9
34.854,35.91
34.844,35.915
34.834,35.916
34.822,35.913
34.811,35.905
34.799,35.894
34.787,35.881
34.774,35.866
34.76,35.849
34.746,35.831
34.73,35.811
34.715,35.791
34.7,35.77
34.687,35.748
34.676,35.725
34.667,35.701
34.66,35.678
34.653,35.654
34.647,35.631
34.642,35.609
34.636,35.586
34.632,35.564
34.629,35.542
34.626,35.52
34.623,35.498
34.619,35.476
34.615,35.453
34.611,35.43
34.606,35.408
34.601,35.385
34.596,35.363
34.591,35.341
34.587,35.319
34.584,35.298
34.581,35.279
34.579,35.26
34.579,35.242
34.582,35.224
34.587,35.207
34.595,35.191
34.607,35.176
34.623,35.162
34.643,35.15
34.668,35.139
34.699,35.129
34.738,35.12
34.786,35.112
34.844,35.104
34.912,35.097
34.991,35.089
35.079,35.08
35.177,35.07
35.283,35.06
35.397,35.049
35.516,35.037
35.639,35.026
35.764,35.015
35.889,35.006
36.011,34.997
36.128,34.99
36.239,34.984
36.343,34.979
36.438,34.975
36.524,34.971
36.6,34.968
36.666,34.966
36.722,34.963
36.768,34.959
36.805,34.956
36.833,34.952
36.854,34.947
36.866,34.943
36.872,34.938
36.869,34.933
36.86,34.928
36.845,34.922
36.824,34.915
36.8,34.907
36.774,34.899
36.746,34.891
36.718,34.883
36.689,34.875
36.659,34.868
36.63,34.862
36.6,34.858
36.571,34.855
36.543,34.853
36.515,34.853
36.488,34.852
36.46,34.852
36.431,34.852
36.399,34.851
36.366,34.849
36.331,34.846
36.294,34.841
36.255,34.835
36.215,34.827
36.175,34.818
36.134,34.809
36.093,34.799
36.052,34.79
36.012,34.783
35.972,34.779
35.933,34.779
35.896,34.784
35.86,34.796
35.827,34.814
35.795,34.841
35.765,34.878
35.738,34.926
35.713,34.987
35.69,35.06
35.671,35.147
35.654,35.248
35.641,35.361
35.631,35.486
35.624,35.621
35.619,35.764
35.617,35.915
35.616,36.07
35.617,36.226
35.621,36.381
35.626,36.531
35.634,36.673
35.645,36.805
35.657,36.923
35.671,37.028
35.687,37.116
35.705,37.188
35.725,37.243
35.747,37.282
35.772,37.305
35.799,37.314
35.826,37.31
35.853,37.294
35.877,37.269
35.899,37.234
35.916,37.193
35.93,37.145
35.94,37.093
35.946,37.038
35.949,36.98
35.947,36.922
35.942,36.865
35.933,36.809
35.922,36.756
35.907,36.705
35.891,36.657
35.875,36.612
35.859,36.568
35.843,36.526
35.828,36.486
35.812,36.447
35.795,36.41
35.776,36.375
35.757,36.34
35.738,36.307
35.718,36.275
35.699,36.243
35.681,36.212
35.663,36.181
35.644,36.15
35.624,36.119
35.604,36.088
35.582,36.056
35.56,36.024
35.538,35.993
35.517,35.964
35.496,35.936
35.476,35.909
35.457,35.884
35.438,35.859
35.42,35.835
35.4,35.811
35.381,35.788
35.36,35.766
35.339,35.745
35.318,35.727
35.297,35.711
35.276,35.697
35.256,35.686
35.236,35.678
35.216,35.674
35.196,35.673
35.176,35.675
35.157,35.681
35.139,35.69
35.121,35.7
35.104,35.713
35.088,35.727
35.073,35.742
35.058,35.758
35.043,35.774
35.028,35.79
35.012,35.806
34.997,35.821
34.982,35.835
34.969,35.848
34.957,35.858
34.948,35.866
34.94,35.872
34.933,35.875
34.926,35.876
34.919,35.874
34.912,35.869
34.904,35.863
34.896,35.854
34.886,35.843
34.877,35.831
34.867,35.817
34.857,35.802
34.846,35.787
34.836,35.77
34.826,35.753
34.817,35.736
34.809,35.72
34.802,35.704
34.796,35.687
34.79,35.671
34.784,35.653
34.778,35.635
34.773,35.615
34.771,35.594
34.77,35.571
34.771,35.547
34.774,35.521
34.779,35.493
34.787,35.464
34.798,35.435
34.813,35.406
34.835,35.376
34.864,35.348
34.899,35.32
34.943,35.293
34.994,35.267
35.052,35.243
35.119,35.221
35.193,35.2
35.277,35.182
35.369,35.166
35.469,35.153
35.575,35.141
35.686,35.13
35.799,35.121
35.913,35.112
36.027,35.104
36.139,35.096
36.249,35.088
36.356,35.079
36.459,35.069
36.558,35.058
36.651,35.047
36.736,35.035
36.813,35.022
36.879,35.009
36.935,34.996
36.981,34.984
37.017,34.972
37.043,34.961
37.06,34.952
37.069,34.944
37.069,34.938
37.063,34.932
37.051,34.927
37.034,34.923
37.013,34.92
36.989,34.917
36.964,34.915
36.936,34.912
36.907,34.911
36.876,34.91
36.843,34.909
36.809,34.91
36.774,34.912
36.738,34.914
36.702,34.917
36.667,34.92
36.633,34.923
36.6,34.926
36.568,34.927
36.538,34.927
36.507,34.926
36.477,34.924
36.447,34.921
36.416,34.918
36.384,34.913
36.35,34.907
36.314,34.899
36.276,34.89
36.238,34.88
36.198,34.87
36.157,34.86
36.116,34.85
36.074,34.84
36.034,34.831
35.995,34.823
35.957,34.815
35.921,34.808
35.887,34.802
35.857,34.796
35.83,34.79
35.807,34.784
35.788,34.779
35.772,34.773
35.759,34.767
35.749,34.761
35.742,34.757
35.737,34.753
35.735,34.752
35.735,34.754
35.74,34.759
35.748,34.767
35.759,34.78
35.773,34.799
35.791,34.827
35.811,34.863
35.832,34.911
35.855,34.971
35.878,35.044
35.901,35.132
35.923,35.233
35.943,35.346
35.961,35.471
35.976,35.606
35.99,35.748
36,35.896
36.009,36.045
36.014,36.196
36.017,36.343
36.017,36.487
36.015,36.622
36.01,36.748
36.002,36.861
35.992,36.961
35.979,37.045
35.966,37.112
35.951,37.163
35.935,37.198
35.918,37.217
35.901,37.222
35.884,37.213
35.867,37.192
35.851,37.161
35.835,37.121
35.819,37.074
35.804,37.022
35.787,36.967
35.77,36.911
35.751,36.855
35.73,36.8
35.709,36.746
35.686,36.694
35.662,36.645
35.637,36.597
35.611,36.551
35.583,36.508
35.553,36.467
35.522,36.427
35.491,36.389
35.461,36.352
35.432,36.316
35.405,36.282
35.38,36.248
35.356,36.214
35.333,36.18
35.309,36.144
35.285,36.108
35.261,36.071
35.239,36.033
35.218,35.994
35.2,35.954
35.183,35.915
35.167,35.876
35.153,35.838
35.139,35.801
35.124,35.767
35.11,35.734
35.095,35.703
35.081,35.675
35.068,35.649
35.055,35.626
35.042,35.605
35.029,35.587
35.015,35.572
35.001,35.56
34.987,35.551
34.973,35.546
34.959,35.544
34.944,35.546
34.928,35.551
34.91,35.56
34.892,35.572
34.874,35.588
34.857,35.607
34.843,35.63
34.83,35.655
34.819,35.682
34.81,35.71
34.802,35.738
34.794,35.766
34.787,35.792
34.78,35.817
34.774,35.839
34.768,35.858
34.763,35.874
34.759,35.886
34.755,35.893
34.75,35.895
34.746,35.893
34.742,35.885
34.738,35.873
34.735,35.857
34.733,35.839
34.731,35.819
34.73,35.798
34.73,35.776
34.73,35.755
34.73,35.736
34.732,35.717
34.735,35.7
34.738,35.685
34.743,35.672
34.748,35.661
34.756,35.65
34.766,35.641
34.781,35.631
34.801,35.621
34.828,35.61
34.862,35.596
34.905,35.581
34.958,35.564
35.02,35.544
35.093,35.522
35.175,35.497
35.267,35.471
35.368,35.444
35.477,35.415
35.593,35.387
35.713,35.359
35.836,35.331
35.958,35.305
36.079,35.279
36.196,35.255
36.308,35.233
36.414,35.213
36.511,35.195
36.6,35.178
36.679,35.163
36.748,35.149
36.807,35.136
36.855,35.124
36.895,35.112
36.925,35.099
36.948,35.086
36.963,35.073
36.971,35.059
36.972,35.044
36.966,35.028
36.955,35.012
36.937,34.995
36.915,34.978
36.887,34.962
36.857,34.947
36.825,34.934
36.791,34.922
36.756,34.912
36.721,34.903
36.685,34.897
36.649,34.893
36.613,34.891
36.577,34.891
36.541,34.892
36.505,34.895
36.469,34.898
36.433,34.9
36.398,34.902
36.362,34.904
36.327,34.904
36.292,34.903
36.257,34.902
36.221,34.899
36.184,34.896
36.145,34.891
36.105,34.885
36.063,34.877
36.021,34.87
35.978,34.862
35.936,34.855
35.895,34.848
35.855,34.842
35.817,34.837
35.78,34.833
35.746,34.83
35.714,34.828
35.686,34.827
35.661,34.826
35.64,34.826
35.623,34.826
35.61,34.824
35.602,34.822
35.596,34.819
35.595,34.815
35.597,34.81
35.602,34.803
35.611,34.795
35.622,34.786
35.635,34.776
35.649,34.766
35.665,34.755
35.681,34.744
35.698,34.734
35.717,34.725
35.736,34.718
35.757,34.712
35.777,34.708
35.797,34.705
35.815,34.704
35.831,34.704
35.845,34.704
35.857,34.706
35.866,34.709
35.874,34.713
35.88,34.719
35.883,34.727
35.885,34.739
35.884,34.755
35.88,34.777
35.874,34.806
35.866,34.843
35.856,34.89
35.846,34.948
35.835,35.018
35.823,35.101
35.81,35.197
35.796,35.306
35.78,35.428
35.764,35.559
35.747,35.699
35.73,35.845
35.713,35.993
35.696,36.142
35.679,36.287
35.661,36.427
35.642,36.558
35.622,36.679
35.602,36.786
35.581,36.88
35.559,36.958
35.537,37.02
35.513,37.066
35.487,37.098
35.458,37.115
35.426,37.118
35.394,37.11
35.36,37.092
35.327,37.064
35.296,37.028
35.266,36.986
35.238,36.938
35.212,36.885
35.189,36.829
35.167,36.771
35.148,36.711
35.13,36.65
35.115,36.591
35.101,36.532
35.087,36.476
35.075,36.422
35.062,36.37
35.049,36.323
35.035,36.278
35.022,36.237
35.008,36.199
34.994,36.165
34.98,36.132
34.965,36.102
34.95,36.073
34.935,36.044
34.92,36.015
34.906,35.984
34.893,35.951
34.881,35.917
34.87,35.882
34.859,35.845
34.849,35.807
34.838,35.769
34.828,35.73
34.817,35.691
34.806,35.653
34.795,35.615
34.784,35.579
34.774,35.544
34.764,35.513
34.756,35.486
34.749,35.462
34.743,35.444
34.738,35.43
34.733,35.421
34.728,35.419
34.722,35.422
34.717,35.429
34.712,35.442
34.709,35.459
34.707,35.479
34.706,35.503
34.706,35.529
34.707,35.556
34.708,35.584
34.708,35.611
34.709,35.639
34.709,35.665
34.709,35.69
34.71,35.713
34.711,35.735
34.713,35.754
34.716,35.771
34.722,35.784
34.733,35.795
34.748,35.803
34.771,35.808
34.803,35.811
34.843,35.81
34.892,35.807
34.951,35.802
35.019,35.796
35.096,35.789
35.182,35.78
35.277,35.771
35.379,35.76
35.486,35.749
35.598,35.735
35.71,35.72
35.823,35.703
35.934,35.685
36.043,35.665
36.147,35.644
36.247,35.622
36.34,35.599
36.426,35.574
36.503,35.549
36.571,35.521
36.629,35.493
36.676,35.463
36.715,35.432
36.746,35.4
36.769,35.368
36.786,35.337
36.796,35.308
36.801,35.281
36.8,35.258
36.793,35.237
36.782,35.219
36.766,35.203
36.746,35.189
36.724,35.178
36.7,35.167
36.674,35.157
36.644,35.149
36.613,35.142
36.578,35.135
36.541,35.129
36.502,35.122
36.463,35.115
36.423,35.105
36.384,35.093
36.346,35.08
36.308,35.064
36.27,35.048
36.231,35.03
36.193,35.011
36.153,34.992
36.112,34.973
36.071,34.955
36.028,34.937
35.984,34.921
35.939,34.906
35.894,34.894
35.847,34.883
35.801,34.874
35.755,34.867
35.71,34.861
35.668,34.857
35.628,34.855
35.592,34.854
35.56,34.854
35.533,34.855
35.509,34.856
35.49,34.858
35.476,34.859
35.465,34.86
35.458,34.86
35.455,34.859
35.454,34.858
35.457,34.856
35.462,34.853
35.47,34.85
35.48,34.845
35.492,34.841
35.507,34.836
35.523,34.832
35.541,34.829
35.56,34.826
35.58,34.824
35.6,34.822
35.621,34.82
35.643,34.817
35.664,34.813
35.684,34.808
35.703,34.803
35.719,34.797
35.734,34.79
35.747,34.783
35.758,34.775
35.767,34.768
35.774,34.761
35.779,34.755
35.782,34.751
35.783,34.747
35.783,34.745
35.781,34.743
35.779,34.742
35.776,34.741
35.77,34.741
35.762,34.741
35.751,34.744
35.736,34.748
35.718,34.755
35.697,34.766
35.675,34.78
35.651,34.8
35.627,34.827
35.602,34.861
35.577,34.905
35.551,34.958
35.524,35.023
35.497,35.099
35.472,35.188
35.447,35.289
35.424,35.401
35.403,35.523
35.382,35.652
35.363,35.788
35.343,35.927
35.323,36.067
35.304,36.205
35.285,36.34
35.267,36.469
35.248,36.59
35.229,36.7
35.208,36.799
35.186,36.884
35.163,36.954
35.138,37.007
35.112,37.044
35.086,37.065
35.06,37.071
35.035,37.063
35.009,37.042
34.983,37.012
34.958,36.974
34.934,36.93
34.91,36.881
34.888,36.83
34.868,36.777
34.849,36.724
34.831,36.672
34.815,36.62
34.8,36.57
34.786,36.522
34.774,36.476
34.763,36.43
34.754,36.386
34.747,36.342
34.74,36.3
34.734,36.258
34.727,36.216
34.72,36.175
34.713,36.134
34.705,36.093
34.698,36.052
34.691,36.012
34.684,35.971
34.677,35.931
34.67,35.89
34.663,35.849
34.657,35.808
34.651,35.767
34.647,35.728
34.643,35.691
34.639,35.657
34.635,35.625
34.63,35.596
34.625,35.569
34.62,35.545
34.616,35.525
34.611,35.507
34.608,35.491
34.607,35.479
34.607,35.468
34.611,35.461
34.62,35.455
34.635,35.452
34.657,35.451
34.688,35.451
34.729,35.454
34.779,35.458
34.84,35.464
34.91,35.472
34.991,35.482
35.08,35.493
35.178,35.506
35.282,35.52
35.392,35.536
35.506,35.553
35.624,35.571
35.743,35.591
35.863,35.612
35.983,35.633
36.101,35.655
36.215,35.677
36.323,35.698
36.424,35.718
36.516,35.736
36.598,35.751
36.669,35.764
36.731,35.772
36.782,35.777
36.823,35.779
36.855,35.777
36.878,35.771
36.893,35.762
36.9,35.751
36.9,35.736
36.892,35.719
36.879,35.7
36.861,35.679
36.839,35.656
36.813,35.633
36.786,35.609
36.755,35.586
36.722,35.562
36.687,35.538
36.649,35.514
36.61,35.49
36.57,35.467
36.53,35.444
36.491,35.422
36.452,35.4
36.414,35.379
36.376,35.359
36.339,35.34
36.303,35.322
36.267,35.305
36.232,35.289
36.197,35.274
36.162,35.26
36.127,35.246
36.09,35.233
36.05,35.22
36.009,35.207
35.965,35.194
35.92,35.181
35.875,35.168
35.83,35.154
35.785,35.14
35.743,35.128
35.701,35.115
35.662,35.104
35.626,35.092
35.594,35.081
35.566,35.071
35.543,35.06
35.526,35.05
35.513,35.039
35.505,35.028
35.501,35.017
35.5,35.006
35.502,34.996
35.506,34.986
35.512,34.976
35.521,34.966
35.532,34.957
35.545,34.947
35.56,34.938
35.576,34.93
35.593,34.922
35.61,34.915
35.628,34.909
35.646,34.902
35.664,34.896
35.68,34.891
35.696,34.886
35.71,34.882
35.724,34.879
35.737,34.876
35.75,34.874
35.763,34.872
35.773,34.871
35.783,34.87
35.79,34.869
35.796,34.868
35.801,34.867
35.804,34.867
35.806,34.867
35.806,34.868
35.804,34.868
35.799,34.868
35.79,34.868
35.779,34.868
35.764,34.869
35.748,34.871
35.729,34.873
35.709,34.876
35.688,34.879
35.665,34.881
35.641,34.88
35.615,34.877
35.589,34.871
35.562,34.862
35.536,34.85
35.511,34.836
35.486,34.82
35.461,34.803
35.435,34.785
35.41,34.768
35.385,34.753
35.36,34.738
35.336,34.726
35.312,34.716
35.288,34.708
35.264,34.701
35.239,34.697
35.213,34.693
35.188,34.692
35.163,34.692
35.14,34.695
35.117,34.7
35.096,34.708
35.076,34.72
35.056,34.736
35.036,34.757
35.015,34.784
34.995,34.819
34.974,34.863
34.954,34.916
34.935,34.98
34.917,35.056
34.9,35.144
34.884,35.245
34.87,35.357
34.857,35.481
34.845,35.614
34.834,35.755
34.824,35.902
34.814,36.051
34.803,36.202
34.792,36.349
34.779,36.491
34.765,36.625
34.751,36.748
34.738,36.859
34.725,36.954
34.712,37.034
34.7,37.098
34.687,37.145
34.675,37.177
34.664,37.193
34.654,37.194
34.647,37.182
34.641,37.158
34.638,37.123
34.636,37.08
34.635,37.03
34.635,36.974
34.635,36.916
34.637,36.856
34.639,36.797
34.644,36.738
34.651,36.682
34.661,36.63
34.675,36.581
34.694,36.536
34.718,36.495
34.749,36.457
34.787,36.421
34.835,36.388
34.892,36.356
34.959,36.326
35.034,36.296
35.118,36.267
35.21,36.239
35.31,36.209
35.418,36.178
35.532,36.147
35.652,36.114
35.775,36.079
35.899,36.043
36.022,36.005
36.141,35.967
36.254,35.929
36.361,35.891
36.461,35.853
36.554,35.816
36.639,35.78
36.717,35.745
36.786,35.711
36.846,35.679
36.896,35.649
36.937,35.621
36.967,35.597
36.988,35.577
37.001,35.562
37.006,35.553
37.005,35.55
36.999,35.552
36.988,35.559
36.973,35.571
36.954,35.587
36.931,35.607
36.905,35.63
36.877,35.655
36.848,35.681
36.818,35.708
36.786,35.734
36.753,35.759
36.719,35.782
36.683,35.803
36.645,35.821
36.606,35.837
36.567,35.851
36.526,35.862
36.485,35.872
36.443,35.881
36.4,35.888
36.356,35.894
36.312,35.898
36.267,35.902
36.221,35.904
36.174,35.905
36.127,35.905
36.08,35.905
36.033,35.903
35.988,35.901
35.944,35.898
35.901,35.894
35.86,35.889
35.821,35.882
35.784,35.872
35.749,35.86
35.717,35.846
35.688,35.829
35.663,35.809
35.643,35.788
35.628,35.764
35.616,35.739
35.609,35.714
35.604,35.689
35.603,35.664
35.604,35.641
35.609,35.618
35.616,35.596
35.627,35.574
35.64,35.553
35.656,35.533
35.674,35.514
35.694,35.496
35.717,35.479
35.742,35.463
35.769,35.447
35.797,35.432
35.826,35.418
35.854,35.405
35.881,35.391
35.906,35.379
35.929,35.366
35.95,35.354
35.967,35.342
35.981,35.33
35.99,35.319
35.996,35.306
35.997,35.294
35.994,35.28
35.987,35.266
35.977,35.252
35.965,35.237
35.951,35.222
35.935,35.207
35.918,35.192
35.899,35.177
35.879,35.163
35.858,35.15
35.836,35.137
35.814,35.126
35.793,35.116
35.773,35.107
35.754,35.1
35.736,35.094
35.72,35.089
35.703,35.085
35.687,35.082
35.671,35.079
35.653,35.077
35.633,35.075
35.612,35.074
35.589,35.074
35.565,35.075
35.54,35.077
35.514,35.08
35.487,35.084
35.46,35.089
35.434,35.094
35.408,35.099
35.383,35.104
35.36,35.108
35.337,35.111
35.314,35.113
35.292,35.114
35.269,35.114
35.247,35.113
35.224,35.112
35.202,35.11
35.18,35.108
35.157,35.106
35.133,35.102
35.107,35.098
35.08,35.092
35.052,35.086
35.025,35.079
34.997,35.071
34.971,35.062
34.945,35.053
34.919,35.044
34.895,35.035
34.872,35.026
34.85,35.018
34.829,35.012
34.811,35.007
34.794,35.003
34.779,35
34.765,34.998
34.751,34.996
34.738,34.995
34.725,34.993
34.712,34.991
34.7,34.991
34.688,34.992
34.676,34.997
34.665,35.007
34.653,35.023
34.641,35.048
34.63,35.082
34.621,35.127
34.614,35.183
34.608,35.252
34.604,35.334
34.6,35.429
34.596,35.537
34.592,35.658
34.586,35.789
34.581,35.929
34.576,36.076
34.572,36.226
34.568,36.376
34.564,36.523
34.561,36.665
34.557,36.799
34.553,36.922
34.55,37.032
34.547,37.126
34.546,37.204
34.547,37.265
34.55,37.309
34.556,37.336
34.564,37.347
34.576,37.344
34.591,37.329
34.612,37.302
34.637,37.266
34.669,37.222
34.707,37.172
34.752,37.118
34.804,37.061
34.865,37.001
34.935,36.942
35.015,36.883
35.105,36.826
35.204,36.771
35.313,36.718
35.428,36.668
35.55,36.621
35.674,36.576
35.801,36.533
35.928,36.492
36.054,36.453
36.177,36.415
36.295,36.378
36.406,36.343
36.51,36.309
36.603,36.276
36.687,36.245
36.76,36.213
36.822,36.183
36.873,36.152
36.914,36.121
36.946,36.089
36.969,36.056
36.985,36.02
36.993,35.983
36.994,35.944
36.989,35.903
36.978,35.861
36.96,35.818
36.938,35.775
36.91,35.734
36.877,35.696
36.841,35.661
36.802,35.631
36.76,35.606
36.717,35.586
36.672,35.572
36.627,35.563
36.581,35.56
36.537,35.561
36.493,35.567
36.45,35.576
36.408,35.59
36.368,35.608
36.328,35.629
36.289,35.652
36.25,35.676
36.209,35.702
36.169,35.727
36.127,35.752
36.085,35.776
36.042,35.799
36,35.821
35.957,35.84
35.916,35.857
35.876,35.871
35.838,35.883
35.801,35.892
35.765,35.9
35.732,35.905
35.701,35.909
35.673,35.911
35.648,35.911
35.627,35.909
35.608,35.906
35.592,35.901
35.579,35.895
35.569,35.888
35.563,35.88
35.561,35.87
35.563,35.858
35.569,35.845
35.58,35.83
35.593,35.814
35.607,35.797
35.623,35.779
35.638,35.76
35.653,35.74
35.668,35.719
35.683,35.697
35.698,35.674
35.713,35.652
35.727,35.629
35.742,35.607
35.756,35.584
35.77,35.562
35.785,35.539
35.799,35.517
35.813,35.495
35.825,35.474
35.836,35.452
35.844,35.431
35.849,35.411
35.85,35.391
35.847,35.372
35.841,35.353
35.832,35.335
35.821,35.318
35.807,35.301
35.79,35.286
35.771,35.271
35.751,35.258
35.729,35.245
35.708,35.233
35.687,35.221
35.666,35.211
35.646,35.202
35.625,35.194
35.604,35.186
35.582,35.178
35.559,35.17
35.536,35.161
35.513,35.152
35.491,35.141
35.468,35.13
35.445,35.119
35.422,35.107
35.397,35.095
35.372,35.084
35.346,35.073
35.32,35.063
35.294,35.054
35.268,35.047
35.243,35.042
35.217,35.038
35.19,35.036
35.164,35.036
35.138,35.038
35.113,35.042
35.089,35.046
35.065,35.052
35.042,35.057
35.02,35.062
34.997,35.067
34.976,35.07
34.955,35.072
34.934,35.072
34.915,35.071
34.897,35.068
34.88,35.063
34.863,35.056
34.846,35.047
34.829,35.038
34.81,35.027
34.792,35.015
34.775,35.004
34.758,34.992
34.743,34.981
34.729,34.969
34.716,34.958
34.703,34.949
34.691,34.94
34.68,34.932
34.67,34.926
34.661,34.922
34.654,34.919
34.649,34.917
34.644,34.916
34.64,34.917
34.637,34.919
34.634,34.922
34.632,34.925
34.629,34.927
34.627,34.929
34.623,34.929
34.619,34.928
34.613,34.925
34.607,34.921
34.601,34.916
34.596,34.911
34.591,34.908
34.588,34.907
34.587,34.91
34.585,34.917
34.584,34.93
34.583,34.95
34.582,34.981
34.582,35.022
34.584,35.076
34.589,35.143
34.599,35.224
34.614,35.32
34.634,35.429
34.66,35.55
34.694,35.682
34.735,35.822
34.784,35.969
34.843,36.12
34.91,36.27
34.986,36.419
35.071,36.562
35.163,36.699
35.263,36.827
35.368,36.944
35.477,37.048
35.589,37.139
35.702,37.216
35.814,37.28
35.923,37.329
36.027,37.365
36.126,37.387
36.218,37.397
36.303,37.395
36.381,37.383
36.452,37.362
36.515,37.332
36.571,37.295
36.619,37.252
36.658,37.205
36.688,37.155
36.711,37.102
36.725,37.049
36.732,36.995
36.732,36.943
36.726,36.892
36.714,36.844
36.697,36.799
36.676,36.757
36.65,36.717
36.621,36.68
36.591,36.645
36.558,36.612
36.526,36.579
36.492,36.547
36.459,36.515
36.425,36.484
36.391,36.454
36.356,36.423
36.32,36.393
36.284,36.363
36.248,36.332
36.212,36.301
36.176,36.27
36.139,36.238
36.1,36.205
36.06,36.173
36.018,36.14
35.973,36.107
35.927,36.075
35.88,36.044
35.832,36.015
35.784,35.987
35.735,35.962
35.686,35.94
35.638,35.92
35.59,35.903
35.544,35.89
35.5,35.879
35.459,35.872
35.422,35.868
35.389,35.868
35.36,35.871
35.337,35.878
35.319,35.888
35.308,35.902
35.302,35.919
35.301,35.938
35.305,35.96
35.311,35.983
35.322,36.007
35.335,36.032
35.351,36.058
35.369,36.082
35.389,36.106
35.41,36.128
35.432,36.148
35.455,36.164
35.477,36.177
35.5,36.186
35.523,36.191
35.547,36.192
35.57,36.189
35.594,36.183
35.617,36.173
35.638,36.16
35.656,36.145
35.671,36.129
35.683,36.112
35.692,36.095
35.698,36.078
35.701,36.062
35.702,36.046
35.701,36.031
35.696,36.015
35.688,35.999
35.678,35.982
35.666,35.964
35.653,35.945
35.639,35.924
35.624,35.903
35.609,35.881
35.593,35.859
35.575,35.836
35.555,35.813
35.534,35.79
35.512,35.766
35.488,35.741
35.463,35.716
35.437,35.69
35.41,35.664
35.38,35.637
35.349,35.61
35.318,35.584
35.287,35.559
35.256,35.535
35.227,35.512
35.199,35.49
35.171,35.471
35.144,35.454
35.118,35.439
35.092,35.428
35.068,35.419
35.045,35.411
35.025,35.405
35.007,35.399
34.989,35.393
34.972,35.388
34.955,35.382
34.937,35.376
34.92,35.369
34.904,35.361
34.888,35.352
34.873,35.342
34.858,35.331
34.842,35.319
34.826,35.306
34.808,35.291
34.79,35.277
34.771,35.262
34.751,35.249
34.732,35.236
34.713,35.226
34.693,35.216
34.673,35.208
34.654,35.201
34.634,35.197
34.616,35.194
