Trial 1:0back,Trial 6:0back
32.552,33.954
32.557,33.935
32.563,33.916
32.567,33.899
32.572,33.884
32.578,33.874
32.585,33.868
32.594,33.869
32.605,33.878
32.617,33.896
32.629,33.923
32.639,33.962
32.648,34.011
32.653,34.073
32.655,34.147
32.655,34.234
32.651,34.333
32.646,34.442
32.638,34.562
32.628,34.688
32.614,34.819
32.597,34.951
32.578,35.083
32.557,35.213
32.535,35.338
32.514,35.457
32.493,35.569
32.474,35.679
32.456,35.786
32.439,35.888
32.424,35.982
32.409,36.065
32.395,36.135
32.38,36.189
32.365,36.227
32.349,36.248
32.332,36.253
32.313,36.243
32.293,36.219
32.273,36.183
32.251,36.137
32.23,36.083
32.209,36.025
32.189,35.965
32.172,35.905
32.161,35.847
32.157,35.793
32.167,35.744
32.195,35.702
32.246,35.667
32.325,35.64
32.44,35.621
32.596,35.608
32.801,35.601
33.06,35.599
33.379,35.601
33.759,35.606
34.201,35.613
34.703,35.62
35.257,35.626
35.855,35.629
36.484,35.628
37.132,35.625
37.784,35.616
38.425,35.602
39.041,35.582
39.62,35.558
40.151,35.53
40.626,35.498
41.039,35.464
41.387,35.427
41.668,35.389
41.885,35.351
42.039,35.314
42.136,35.278
42.179,35.244
42.175,35.213
42.13,35.186
42.051,35.163
41.944,35.145
41.816,35.131
41.67,35.122
41.511,35.116
41.342,35.113
41.168,35.112
40.993,35.113
40.82,35.115
40.652,35.117
40.489,35.121
40.334,35.125
40.185,35.129
40.044,35.132
39.91,35.136
39.784,35.139
39.664,35.14
39.551,35.141
39.443,35.14
39.339,35.137
39.238,35.132
39.141,35.126
39.045,35.119
38.949,35.109
38.853,35.098
38.756,35.085
38.656,35.07
38.551,35.053
38.441,35.035
38.326,35.016
38.204,34.996
38.075,34.977
37.94,34.959
37.799,34.942
37.654,34.927
37.506,34.914
37.358,34.902
37.211,34.891
37.068,34.88
36.931,34.87
36.8,34.859
36.677,34.847
36.563,34.835
36.459,34.822
36.366,34.807
36.286,34.792
36.219,34.776
36.164,34.76
36.121,34.742
36.09,34.724
36.069,34.706
36.058,34.687
36.054,34.668
36.058,34.649
36.068,34.631
36.084,34.614
36.104,34.599
36.127,34.585
36.151,34.573
36.175,34.563
36.197,34.554
36.215,34.548
36.228,34.542
36.236,34.539
36.239,34.536
36.236,34.535
36.227,34.534
36.211,34.534
36.188,34.535
36.159,34.534
36.123,34.533
36.081,34.53
36.034,34.524
35.983,34.515
35.929,34.502
35.872,34.486
35.812,34.468
35.75,34.449
35.684,34.429
35.616,34.41
35.545,34.392
35.471,34.374
35.393,34.357
35.312,34.343
35.229,34.331
35.143,34.321
35.055,34.314
34.965,34.309
34.873,34.307
34.78,34.306
34.685,34.306
34.589,34.305
34.494,34.304
34.399,34.303
34.307,34.3
34.217,34.297
34.131,34.293
34.05,34.287
33.973,34.279
33.901,34.27
33.833,34.259
33.769,34.249
33.707,34.238
33.647,34.227
33.588,34.218
33.53,34.209
33.472,34.201
33.416,34.192
33.36,34.182
33.307,34.172
33.254,34.16
33.204,34.148
33.155,34.135
33.107,34.121
33.06,34.108
33.014,34.096
32.971,34.086
32.931,34.078
32.894,34.07
32.861,34.063
32.831,34.055
32.803,34.047
32.776,34.037
32.75,34.027
32.727,34.016
32.705,34.005
32.687,33.993
32.672,33.982
32.659,33.972
32.65,33.961
32.641,33.95
32.632,33.939
32.622,33.931
32.612,33.925
32.602,33.923
32.591,33.926
32.582,33.935
32.576,33.952
32.571,33.98
32.568,34.019
32.565,34.069
32.562,34.133
32.556,34.209
32.548,34.297
32.537,34.397
32.524,34.508
32.51,34.629
32.496,34.759
32.485,34.896
32.476,35.038
32.47,35.181
32.467,35.325
32.465,35.466
32.465,35.602
32.466,35.732
32.466,35.853
32.465,35.965
32.464,36.068
32.461,36.159
32.456,36.24
32.447,36.308
32.435,36.363
32.42,36.406
32.399,36.437
32.375,36.458
32.348,36.468
32.32,36.471
32.291,36.467
32.262,36.457
32.235,36.443
32.206,36.425
32.178,36.406
32.149,36.385
32.119,36.364
32.09,36.343
32.062,36.325
32.036,36.309
32.013,36.295
31.992,36.285
31.972,36.277
31.955,36.273
31.939,36.27
31.925,36.267
31.915,36.266
31.91,36.264
31.912,36.262
31.924,36.259
31.951,36.256
31.997,36.254
32.071,36.251
32.178,36.25
32.327,36.249
32.525,36.247
32.778,36.244
33.092,36.24
33.469,36.232
33.907,36.222
34.402,36.208
34.945,36.192
35.526,36.173
36.132,36.152
36.75,36.129
37.366,36.104
37.967,36.079
38.539,36.053
39.072,36.026
39.557,35.999
39.986,35.973
40.354,35.948
40.657,35.924
40.896,35.904
41.071,35.886
41.185,35.87
41.24,35.858
41.244,35.849
41.203,35.843
41.123,35.841
41.012,35.842
40.877,35.844
40.723,35.848
40.556,35.852
40.38,35.856
40.201,35.859
40.02,35.86
39.843,35.86
39.672,35.856
39.507,35.85
39.349,35.842
39.2,35.831
39.059,35.819
38.926,35.805
38.802,35.789
38.685,35.772
38.574,35.755
38.469,35.736
38.369,35.718
38.272,35.698
38.179,35.679
38.088,35.661
38,35.643
37.913,35.627
37.827,35.611
37.739,35.596
37.649,35.582
37.555,35.569
37.456,35.556
37.354,35.542
37.247,35.529
37.137,35.516
37.025,35.502
36.911,35.487
36.796,35.472
36.682,35.455
36.571,35.437
36.462,35.418
36.358,35.397
36.261,35.373
36.17,35.347
36.087,35.319
36.013,35.289
35.948,35.256
35.893,35.22
35.849,35.182
35.814,35.142
35.789,35.102
35.773,35.064
35.765,35.028
35.765,34.996
35.773,34.969
35.787,34.946
35.805,34.927
35.827,34.912
35.851,34.901
35.876,34.892
35.902,34.885
35.928,34.88
35.951,34.876
35.97,34.873
35.984,34.869
35.993,34.865
35.996,34.86
35.993,34.855
35.984,34.848
35.971,34.841
35.952,34.831
35.928,34.822
35.899,34.811
35.866,34.8
35.829,34.787
35.788,34.773
35.744,34.758
35.696,34.742
35.646,34.725
35.594,34.707
35.541,34.69
35.487,34.673
35.431,34.658
35.375,34.645
35.316,34.634
35.256,34.625
35.193,34.619
35.128,34.613
35.063,34.609
34.997,34.607
34.932,34.606
34.867,34.605
34.803,34.604
34.74,34.603
34.676,34.602
34.611,34.6
34.546,34.598
34.479,34.594
34.412,34.589
34.345,34.583
34.28,34.576
34.216,34.568
34.154,34.557
34.095,34.544
34.038,34.529
33.984,34.512
33.933,34.493
33.884,34.473
33.838,34.452
33.794,34.432
33.754,34.412
33.716,34.394
33.681,34.377
33.647,34.361
33.615,34.348
33.582,34.335
33.549,34.323
33.515,34.31
33.48,34.297
33.444,34.284
33.409,34.272
33.375,34.259
33.343,34.246
33.312,34.231
33.284,34.215
33.258,34.198
33.234,34.179
33.21,34.161
33.186,34.142
33.164,34.124
33.143,34.107
33.124,34.093
33.109,34.081
33.097,34.07
33.089,34.062
33.083,34.054
33.08,34.048
33.077,34.043
33.075,34.04
33.074,34.038
33.074,34.041
33.074,34.047
33.074,34.06
33.075,34.079
33.074,34.106
33.074,34.142
33.073,34.188
33.07,34.244
33.066,34.311
33.061,34.389
33.056,34.48
33.05,34.582
33.042,34.697
33.033,34.822
33.021,34.954
33.006,35.093
32.988,35.237
32.967,35.383
32.944,35.529
32.92,35.674
32.895,35.816
32.87,35.952
32.845,36.08
32.819,36.2
32.792,36.311
32.764,36.411
32.736,36.499
32.707,36.576
32.679,36.641
32.65,36.694
32.62,36.736
32.591,36.768
32.563,36.79
32.535,36.803
32.508,36.809
32.483,36.807
32.46,36.801
32.44,36.79
32.425,36.775
32.419,36.759
32.424,36.742
32.446,36.724
32.488,36.706
32.558,36.69
32.662,36.676
32.807,36.666
32.997,36.657
33.237,36.651
33.527,36.647
33.865,36.645
34.25,36.646
34.674,36.649
35.132,36.653
35.614,36.657
36.11,36.662
36.608,36.667
37.097,36.671
37.567,36.674
38.008,36.675
38.412,36.673
38.773,36.67
39.088,36.666
39.354,36.66
39.569,36.653
39.733,36.646
39.849,36.639
39.918,36.629
39.945,36.618
39.934,36.604
39.889,36.588
39.814,36.569
39.714,36.547
39.594,36.523
39.46,36.497
39.315,36.469
39.165,36.442
39.012,36.415
38.859,36.39
38.709,36.366
38.563,36.345
38.421,36.325
38.285,36.306
38.154,36.289
38.029,36.273
37.91,36.26
37.799,36.25
37.693,36.241
37.593,36.235
37.498,36.229
37.406,36.225
37.315,36.221
37.225,36.216
37.136,36.211
37.048,36.206
36.96,36.199
36.871,36.192
36.783,36.184
36.693,36.176
36.602,36.166
36.51,36.157
36.416,36.147
36.32,36.136
36.222,36.124
36.124,36.114
36.026,36.103
35.929,36.092
35.833,36.08
35.741,36.067
35.653,36.054
35.571,36.04
35.495,36.024
35.427,36.007
35.367,35.988
35.316,35.967
35.273,35.946
35.241,35.923
35.219,35.898
35.206,35.872
35.202,35.846
35.205,35.818
35.215,35.789
35.232,35.758
35.254,35.727
35.282,35.696
35.313,35.665
35.346,35.635
35.381,35.608
35.416,35.583
35.45,35.562
35.481,35.543
35.509,35.527
35.533,35.514
35.554,35.502
35.57,35.492
35.581,35.483
35.587,35.474
35.587,35.466
35.581,35.458
35.569,35.446
35.55,35.429
35.525,35.407
35.495,35.38
35.463,35.349
35.427,35.316
35.389,35.282
35.349,35.247
35.307,35.213
35.261,35.181
35.212,35.152
35.159,35.124
35.102,35.099
35.044,35.077
34.983,35.057
34.922,35.039
34.859,35.023
34.795,35.007
34.73,34.993
34.663,34.979
34.595,34.965
34.525,34.952
34.454,34.939
34.382,34.927
34.311,34.915
34.24,34.902
34.17,34.889
34.102,34.874
34.036,34.86
33.972,34.844
33.91,34.828
33.85,34.811
33.791,34.793
33.734,34.775
33.678,34.756
33.623,34.738
33.57,34.72
33.519,34.701
33.469,34.68
33.422,34.659
33.377,34.636
33.334,34.612
33.292,34.588
33.251,34.566
33.21,34.544
33.169,34.524
33.129,34.505
33.09,34.488
33.054,34.472
33.021,34.457
32.991,34.444
32.963,34.432
32.936,34.422
32.91,34.412
32.886,34.403
32.864,34.395
32.845,34.387
32.83,34.379
32.818,34.371
32.81,34.361
32.804,34.351
32.799,34.34
32.794,34.327
32.789,34.313
32.783,34.297
32.776,34.282
32.769,34.266
32.763,34.249
32.756,34.231
32.751,34.211
32.747,34.191
32.743,34.17
32.741,34.149
32.738,34.128
32.736,34.106
32.734,34.084
32.731,34.063
32.728,34.042
32.725,34.022
32.722,34.002
32.72,33.981
32.719,33.959
32.719,33.938
32.72,33.918
32.72,33.901
32.718,33.887
32.713,33.876
32.706,33.871
32.696,33.872
32.684,33.878
32.67,33.893
32.655,33.916
32.638,33.95
32.619,33.996
32.599,34.054
32.577,34.126
32.554,34.211
32.53,34.31
32.507,34.421
32.483,34.543
32.46,34.674
32.436,34.814
32.412,34.961
32.386,35.114
32.357,35.27
32.325,35.428
32.291,35.585
32.256,35.74
32.219,35.889
32.183,36.032
32.148,36.166
32.114,36.289
32.08,36.401
32.048,36.5
32.018,36.587
31.992,36.66
31.971,36.72
31.957,36.767
31.956,36.803
31.97,36.828
32.007,36.842
32.075,36.847
32.18,36.844
32.33,36.834
32.53,36.82
32.787,36.802
33.103,36.782
33.475,36.761
33.901,36.739
34.372,36.719
34.881,36.699
35.415,36.681
35.963,36.665
36.511,36.653
37.049,36.644
37.565,36.638
38.049,36.636
38.492,36.638
38.888,36.642
39.231,36.647
39.519,36.653
39.752,36.659
39.93,36.665
40.055,36.669
40.131,36.673
40.163,36.674
40.154,36.673
40.109,36.67
40.034,36.665
39.935,36.659
39.815,36.65
39.681,36.64
39.535,36.628
39.382,36.614
39.226,36.598
39.07,36.583
38.916,36.569
38.766,36.555
38.622,36.542
38.483,36.528
38.351,36.513
38.226,36.496
38.107,36.477
37.994,36.455
37.888,36.431
37.789,36.405
37.697,36.379
37.612,36.352
37.533,36.326
37.46,36.299
37.392,36.273
37.327,36.249
37.264,36.226
37.202,36.206
37.141,36.188
37.079,36.173
37.015,36.16
36.949,36.151
36.88,36.143
36.809,36.136
36.735,36.13
36.657,36.126
36.575,36.121
36.49,36.118
36.401,36.114
36.312,36.109
36.223,36.104
36.135,36.097
36.05,36.088
35.969,36.077
35.892,36.062
35.822,36.045
35.759,36.026
35.703,36.003
35.655,35.979
35.615,35.953
35.584,35.926
35.562,35.898
35.548,35.868
35.542,35.838
35.542,35.808
35.547,35.776
35.555,35.744
35.564,35.71
35.574,35.678
35.584,35.645
35.593,35.614
35.601,35.585
35.608,35.558
35.615,35.532
35.622,35.509
35.629,35.486
35.634,35.464
35.638,35.444
35.638,35.426
35.635,35.41
35.627,35.395
35.616,35.381
35.601,35.367
35.584,35.353
35.563,35.338
35.54,35.322
35.515,35.304
35.487,35.284
35.457,35.261
35.422,35.236
35.383,35.209
35.34,35.181
35.294,35.153
35.243,35.123
35.19,35.094
35.134,35.065
35.075,35.037
35.016,35.01
34.955,34.985
34.894,34.963
34.832,34.945
34.768,34.931
34.702,34.923
34.634,34.918
34.564,34.918
34.494,34.92
34.424,34.925
34.355,34.932
34.289,34.94
34.226,34.947
34.164,34.954
34.102,34.958
34.04,34.959
33.977,34.957
33.916,34.951
33.856,34.942
33.798,34.93
33.743,34.916
33.691,34.9
33.641,34.883
33.593,34.865
33.546,34.847
33.501,34.828
33.456,34.809
33.413,34.79
33.37,34.771
33.33,34.751
33.293,34.732
33.26,34.713
33.229,34.695
33.202,34.677
33.178,34.658
33.156,34.64
33.135,34.623
33.115,34.607
33.096,34.591
33.078,34.576
33.063,34.563
33.049,34.55
33.036,34.538
33.026,34.525
33.017,34.513
33.01,34.5
33.004,34.486
32.998,34.47
32.993,34.453
32.989,34.434
32.986,34.415
32.984,34.394
32.983,34.372
32.982,34.35
32.98,34.327
32.976,34.304
32.97,34.282
32.963,34.26
32.955,34.239
32.948,34.219
32.942,34.201
32.937,34.184
32.933,34.169
32.929,34.156
32.926,34.146
32.923,34.139
32.92,34.135
32.917,34.136
32.913,34.139
32.909,34.147
32.904,34.161
32.897,34.182
32.889,34.21
32.877,34.248
32.864,34.297
32.847,34.357
32.827,34.429
32.805,34.514
32.781,34.613
32.756,34.726
32.73,34.851
32.704,34.987
32.679,35.133
32.654,35.288
32.63,35.449
32.606,35.614
32.583,35.781
32.561,35.947
32.54,36.11
32.519,36.267
32.498,36.416
32.477,36.556
32.456,36.685
32.433,36.802
32.407,36.907
32.38,37
32.35,37.079
32.318,37.145
32.285,37.198
32.251,37.238
32.217,37.265
32.183,37.282
32.151,37.289
32.119,37.288
32.089,37.28
32.062,37.267
32.039,37.252
32.023,37.235
32.017,37.216
32.027,37.197
32.056,37.177
32.111,37.157
32.2,37.139
32.328,37.124
32.503,37.11
32.73,37.1
33.012,37.093
33.349,37.088
33.739,37.086
34.175,37.086
34.65,37.088
35.152,37.091
35.67,37.094
36.192,37.096
36.707,37.097
37.203,37.097
37.671,37.095
38.1,37.092
38.486,37.086
38.821,37.077
39.104,37.064
39.334,37.048
39.512,37.029
39.638,37.006
39.718,36.981
39.753,36.953
39.75,36.924
39.713,36.895
39.65,36.867
39.565,36.839
39.463,36.812
39.35,36.785
39.227,36.76
39.099,36.736
38.968,36.712
38.835,36.689
38.702,36.668
38.569,36.648
38.437,36.628
38.305,36.607
38.175,36.585
38.047,36.564
37.922,36.543
37.801,36.523
37.686,36.507
37.576,36.494
37.472,36.487
37.373,36.485
37.28,36.487
37.191,36.493
37.107,36.501
37.027,36.511
36.95,36.521
36.878,36.53
36.809,36.537
36.741,36.543
36.676,36.546
36.611,36.545
36.546,36.54
36.479,36.53
36.412,36.515
36.343,36.496
36.271,36.472
36.198,36.445
36.122,36.415
36.044,36.383
35.967,36.349
35.891,36.313
35.82,36.277
35.754,36.24
35.694,36.203
35.64,36.166
35.593,36.127
35.553,36.088
35.518,36.049
35.488,36.012
35.464,35.977
35.445,35.944
35.431,35.913
35.422,35.884
35.418,35.858
35.42,35.834
35.426,35.811
35.436,35.789
35.448,35.767
35.46,35.745
35.472,35.723
35.484,35.701
35.494,35.678
35.503,35.656
35.51,35.633
35.516,35.61
35.52,35.585
35.522,35.56
35.523,35.533
35.521,35.506
35.516,35.478
35.508,35.45
35.497,35.421
35.481,35.391
35.462,35.361
35.437,35.331
35.408,35.299
35.374,35.267
35.336,35.234
35.295,35.202
35.251,35.17
35.205,35.139
35.157,35.111
35.107,35.085
35.055,35.061
35.002,35.039
34.946,35.02
34.889,35.003
34.83,34.985
34.772,34.964
34.714,34.941
34.656,34.915
34.598,34.886
34.539,34.856
34.479,34.826
34.419,34.796
34.357,34.768
34.294,34.741
34.23,34.716
34.166,34.693
34.104,34.672
34.043,34.653
33.984,34.634
33.927,34.616
33.872,34.598
33.818,34.582
33.765,34.566
33.712,34.552
33.66,34.539
33.61,34.526
33.562,34.514
33.516,34.504
33.473,34.495
33.432,34.486
33.392,34.478
33.353,34.47
33.315,34.461
33.277,34.452
33.24,34.442
33.204,34.43
33.168,34.417
33.132,34.401
33.099,34.382
33.067,34.362
33.039,34.341
33.013,34.318
32.991,34.294
32.971,34.27
32.953,34.247
32.937,34.224
32.922,34.204
32.908,34.186
32.896,34.17
32.884,34.156
32.878,34.145
32.88,34.135
32.892,34.127
32.911,34.12
32.937,34.113
32.965,34.107
32.993,34.1
33.019,34.093
33.04,34.085
33.056,34.075
33.065,34.064
33.066,34.051
33.059,34.036
33.046,34.018
33.026,33.999
33.002,33.978
32.975,33.955
32.949,33.932
32.924,33.91
32.902,33.89
32.883,33.874
32.865,33.863
32.85,33.858
32.838,33.86
32.828,33.872
32.821,33.895
32.815,33.931
32.811,33.982
32.807,34.05
32.803,34.135
32.799,34.238
32.793,34.359
32.785,34.496
32.776,34.648
32.765,34.812
32.751,34.987
32.736,35.17
32.718,35.359
32.697,35.552
32.672,35.747
32.645,35.943
32.616,36.136
32.584,36.324
32.551,36.505
32.518,36.678
32.485,36.841
32.452,36.994
32.419,37.136
32.388,37.266
32.358,37.383
32.33,37.489
32.303,37.584
32.278,37.667
32.255,37.737
32.234,37.796
32.215,37.842
32.198,37.878
32.185,37.904
32.178,37.921
32.181,37.93
32.197,37.932
32.232,37.93
32.292,37.923
32.382,37.913
32.51,37.9
32.68,37.888
32.896,37.875
33.159,37.862
33.471,37.85
33.828,37.84
34.227,37.83
34.659,37.822
35.118,37.816
35.592,37.81
36.07,37.806
36.543,37.802
36.999,37.8
37.431,37.798
37.831,37.796
38.193,37.793
38.513,37.788
38.787,37.781
39.014,37.771
39.193,37.757
39.325,37.74
39.412,37.719
39.456,37.697
39.462,37.672
39.432,37.646
39.373,37.618
39.287,37.588
39.182,37.558
39.06,37.527
38.926,37.497
38.784,37.467
38.638,37.439
38.49,37.412
38.343,37.388
38.197,37.367
38.055,37.347
37.919,37.33
37.787,37.314
37.663,37.299
37.544,37.285
37.431,37.272
37.323,37.259
37.221,37.249
37.123,37.239
37.031,37.229
36.945,37.219
36.864,37.208
36.789,37.197
36.719,37.183
36.653,37.167
36.591,37.149
36.529,37.129
36.467,37.107
36.404,37.083
36.339,37.057
36.271,37.028
36.202,36.998
36.131,36.965
36.059,36.931
35.987,36.896
35.915,36.861
35.843,36.825
35.773,36.791
35.705,36.756
35.64,36.723
35.578,36.689
35.522,36.655
35.471,36.621
35.426,36.586
35.39,36.551
35.361,36.515
35.341,36.479
35.329,36.443
35.325,36.407
35.328,36.372
35.336,36.338
35.349,36.305
35.365,36.271
35.385,36.236
35.407,36.201
35.432,36.166
35.457,36.131
35.484,36.094
35.51,36.056
35.536,36.017
35.559,35.977
35.58,35.936
35.597,35.894
35.61,35.85
35.619,35.806
35.623,35.76
35.621,35.714
35.614,35.669
35.603,35.625
35.588,35.585
35.57,35.549
35.549,35.516
35.526,35.488
35.499,35.462
35.469,35.439
35.435,35.418
35.397,35.398
35.354,35.378
35.307,35.357
35.258,35.336
35.209,35.315
35.16,35.294
35.112,35.274
35.065,35.253
35.017,35.232
34.968,35.21
34.917,35.187
34.865,35.164
34.812,35.141
34.757,35.118
34.702,35.094
34.646,35.069
34.589,35.044
34.532,35.018
34.474,34.992
34.416,34.965
34.357,34.938
34.299,34.911
34.241,34.885
34.184,34.859
34.127,34.835
34.072,34.812
34.018,34.791
33.965,34.772
33.915,34.754
33.866,34.737
33.82,34.722
33.776,34.706
33.735,34.69
33.695,34.674
33.659,34.656
33.624,34.636
33.591,34.614
33.559,34.591
33.528,34.565
33.5,34.537
33.474,34.508
33.45,34.478
33.428,34.447
33.407,34.415
33.388,34.381
33.369,34.348
33.352,34.316
33.335,34.285
33.318,34.257
33.302,34.231
33.286,34.208
33.271,34.189
33.257,34.17
33.245,34.153
33.234,34.136
33.226,34.119
33.218,34.101
33.211,34.081
33.204,34.061
33.198,34.04
33.192,34.017
33.186,33.993
33.181,33.969
33.175,33.944
33.171,33.919
33.167,33.893
33.165,33.868
33.164,33.844
33.165,33.821
33.166,33.8
33.167,33.779
33.167,33.761
33.167,33.743
33.165,33.727
33.163,33.712
33.16,33.699
33.155,33.688
33.147,33.679
33.137,33.674
33.125,33.67
33.11,33.67
33.092,33.675
33.072,33.682
33.05,33.691
33.027,33.703
33.002,33.722
32.976,33.751
32.95,33.795
32.924,33.859
32.897,33.945
32.871,34.055
32.844,34.187
32.817,34.342
32.791,34.519
32.764,34.717
32.736,34.933
32.709,35.163
32.688,35.404
32.675,35.653
32.672,35.905
32.676,36.155
32.684,36.4
32.694,36.635
32.704,36.859
32.713,37.067
32.721,37.259
32.73,37.433
32.744,37.588
32.768,37.725
32.808,37.842
32.871,37.94
32.965,38.019
33.096,38.078
33.27,38.12
33.492,38.147
33.762,38.16
34.081,38.162
34.444,38.155
34.846,38.14
35.277,38.121
35.728,38.097
36.189,38.071
36.648,38.042
37.097,38.013
37.526,37.984
37.926,37.956
38.291,37.931
38.615,37.91
38.896,37.894
39.129,37.882
39.316,37.874
39.455,37.868
39.549,37.865
39.601,37.863
39.613,37.863
39.592,37.864
39.541,37.865
39.467,37.866
39.375,37.865
39.269,37.863
39.154,37.858
39.032,37.848
38.906,37.835
38.777,37.817
38.648,37.795
38.518,37.768
38.388,37.738
38.258,37.705
38.131,37.669
38.006,37.633
37.885,37.594
37.771,37.555
37.662,37.516
37.561,37.477
37.467,37.438
37.379,37.401
37.297,37.364
37.221,37.329
37.149,37.295
37.081,37.262
37.016,37.231
36.954,37.201
36.894,37.172
36.835,37.145
36.777,37.12
36.717,37.098
36.655,37.078
36.59,37.06
36.52,37.046
36.444,37.034
36.364,37.024
36.28,37.015
36.193,37.007
36.104,37
36.016,36.993
35.93,36.985
35.847,36.976
35.77,36.964
35.698,36.95
35.634,36.934
35.578,36.914
35.531,36.891
35.494,36.866
35.466,36.837
35.447,36.806
35.437,36.774
35.433,36.74
35.434,36.704
35.441,36.667
35.453,36.628
35.468,36.588
35.488,36.545
35.51,36.501
35.535,36.456
35.56,36.41
35.585,36.362
35.607,36.313
35.626,36.263
35.643,36.211
35.656,36.157
35.666,36.103
35.672,36.047
35.674,35.992
35.673,35.936
35.668,35.88
35.661,35.824
35.651,35.77
35.639,35.718
35.625,35.668
35.608,35.62
35.589,35.573
35.568,35.528
35.544,35.483
35.517,35.439
35.486,35.396
35.452,35.352
35.413,35.309
35.371,35.267
35.326,35.224
35.277,35.181
35.225,35.138
35.169,35.094
35.109,35.049
35.046,35.002
34.98,34.954
34.913,34.904
34.845,34.854
34.776,34.804
34.706,34.754
34.635,34.706
34.564,34.661
34.494,34.619
34.424,34.58
34.357,34.542
34.292,34.505
34.23,34.47
34.171,34.435
34.116,34.401
34.063,34.368
34.014,34.337
33.966,34.307
33.921,34.277
33.878,34.249
33.836,34.222
33.795,34.197
33.754,34.172
33.715,34.148
33.675,34.124
33.637,34.099
33.598,34.074
33.559,34.047
33.52,34.019
33.481,33.989
33.442,33.958
33.405,33.926
33.368,33.896
33.334,33.866
33.302,33.839
33.273,33.816
33.247,33.796
33.224,33.779
33.204,33.765
33.187,33.752
33.173,33.74
33.162,33.729
33.154,33.719
33.149,33.708
33.146,33.697
33.143,33.685
33.14,33.67
33.137,33.652
33.133,33.631
33.129,33.606
33.125,33.578
33.121,33.547
33.117,33.514
33.114,33.479
33.11,33.444
33.107,33.408
33.103,33.372
33.101,33.337
33.1,33.303
33.1,33.268
33.102,33.234
33.104,33.201
33.107,33.169
33.111,33.137
33.114,33.106
33.117,33.076
33.12,33.046
33.122,33.016
33.123,32.988
33.124,32.96
33.123,32.935
33.12,32.912
33.114,32.891
33.105,32.872
33.093,32.856
33.078,32.844
33.059,32.835
33.037,32.831
33.013,32.832
32.986,32.841
32.958,32.859
32.929,32.887
32.898,32.928
32.867,32.984
32.836,33.056
32.805,33.144
32.776,33.249
32.748,33.372
32.723,33.513
32.7,33.672
32.679,33.848
32.659,34.038
32.64,34.242
32.621,34.456
32.6,34.679
32.579,34.908
32.556,35.138
32.533,35.369
32.509,35.597
32.486,35.821
32.465,36.038
32.448,36.246
32.436,36.444
32.431,36.63
32.439,36.802
32.462,36.959
32.509,37.099
32.586,37.223
32.7,37.329
32.86,37.419
33.07,37.494
33.334,37.555
33.652,37.602
34.022,37.637
34.439,37.661
34.895,37.675
35.38,37.679
35.883,37.674
36.392,37.662
36.896,37.642
37.383,37.618
37.846,37.589
38.275,37.558
38.664,37.527
39.008,37.494
39.303,37.461
39.546,37.429
39.739,37.396
39.883,37.364
39.978,37.332
40.03,37.302
40.041,37.274
40.017,37.248
39.963,37.225
39.884,37.203
39.786,37.184
39.673,37.165
39.551,37.147
39.424,37.128
39.294,37.106
39.163,37.081
39.034,37.054
38.908,37.025
38.786,36.994
38.669,36.961
38.557,36.926
38.45,36.892
38.347,36.857
38.247,36.823
38.152,36.79
38.06,36.759
37.971,36.731
37.887,36.705
37.806,36.682
37.728,36.66
37.655,36.639
37.585,36.618
37.519,36.597
37.457,36.575
37.396,36.553
37.337,36.531
37.276,36.51
37.214,36.489
37.149,36.471
37.081,36.455
37.011,36.441
36.94,36.429
36.867,36.419
36.793,36.409
36.718,36.4
36.643,36.39
36.568,36.378
36.494,36.365
36.423,36.351
36.354,36.335
36.289,36.317
36.229,36.299
36.175,36.28
36.127,36.259
36.086,36.237
36.052,36.214
36.024,36.188
36.004,36.161
35.991,36.132
35.984,36.102
35.982,36.071
35.986,36.039
35.994,36.006
36.006,35.97
36.02,35.932
36.036,35.892
36.052,35.849
36.067,35.803
36.083,35.755
36.097,35.705
36.11,35.654
36.123,35.603
36.134,35.55
36.144,35.499
36.151,35.448
36.155,35.4
36.154,35.353
36.149,35.309
36.138,35.267
36.122,35.227
36.1,35.191
36.074,35.157
36.043,35.125
36.007,35.095
35.967,35.068
35.923,35.042
35.876,35.017
35.826,34.991
35.774,34.963
35.72,34.933
35.666,34.902
35.612,34.868
35.557,34.834
35.501,34.798
35.443,34.763
35.384,34.728
35.322,34.694
35.259,34.662
35.194,34.631
35.128,34.601
35.062,34.571
34.998,34.542
34.934,34.513
34.873,34.486
34.813,34.46
34.754,34.436
34.697,34.414
34.642,34.394
34.588,34.377
34.536,34.361
34.487,34.347
34.441,34.333
34.398,34.32
34.357,34.307
34.318,34.293
34.281,34.278
34.246,34.261
34.212,34.243
34.18,34.222
34.148,34.199
34.117,34.173
34.086,34.145
34.055,34.115
34.025,34.083
33.995,34.05
33.965,34.016
33.935,33.982
33.906,33.949
33.877,33.917
33.85,33.887
33.824,33.857
33.8,33.83
33.777,33.804
33.756,33.781
33.737,33.76
33.719,33.74
33.702,33.721
33.687,33.701
33.672,33.679
33.657,33.657
33.643,33.635
33.629,33.612
33.615,33.588
33.602,33.565
33.59,33.543
33.579,33.522
33.569,33.501
33.56,33.482
33.551,33.464
33.543,33.45
33.537,33.44
33.532,33.438
33.528,33.444
33.526,33.461
33.524,33.491
33.524,33.535
33.524,33.595
33.524,33.673
33.524,33.769
33.524,33.883
33.524,34.014
33.523,34.163
33.522,34.328
33.52,34.508
33.517,34.701
33.513,34.906
33.506,35.12
33.497,35.341
33.486,35.567
33.472,35.797
33.458,36.027
33.444,36.256
33.43,36.482
33.415,36.701
33.399,36.913
33.382,37.116
33.361,37.308
33.337,37.487
33.31,37.65
33.282,37.798
33.253,37.929
33.223,38.043
33.194,38.14
33.166,38.22
33.136,38.285
33.105,38.334
33.073,38.37
33.039,38.393
33.004,38.404
32.969,38.405
32.935,38.395
32.903,38.379
32.873,38.355
32.845,38.327
32.82,38.295
32.796,38.26
32.775,38.225
32.759,38.192
32.749,38.16
32.749,38.128
32.763,38.097
32.794,38.067
32.848,38.039
32.931,38.012
33.049,37.986
33.207,37.96
33.409,37.935
33.657,37.91
33.952,37.884
34.291,37.855
34.67,37.822
35.082,37.785
35.519,37.744
35.972,37.698
36.434,37.649
36.894,37.599
37.344,37.548
37.776,37.497
38.181,37.446
38.553,37.397
38.886,37.348
39.175,37.302
39.417,37.259
39.612,37.218
39.76,37.181
39.862,37.147
39.921,37.117
39.941,37.09
39.928,37.066
39.886,37.043
39.822,37.024
39.742,37.006
39.65,36.989
39.551,36.973
39.449,36.959
39.344,36.944
39.241,36.928
39.139,36.912
39.04,36.897
38.944,36.882
38.85,36.869
38.76,36.857
38.672,36.846
38.588,36.834
38.507,36.822
38.43,36.809
38.357,36.796
38.288,36.783
38.223,36.769
38.161,36.754
38.102,36.738
38.046,36.72
37.991,36.699
37.937,36.676
37.882,36.649
37.827,36.621
37.77,36.591
37.712,36.559
37.651,36.526
37.588,36.49
37.524,36.452
37.457,36.412
37.388,36.369
37.318,36.322
37.247,36.273
37.176,36.222
37.106,36.168
37.038,36.115
36.974,36.06
36.912,36.005
36.853,35.949
36.798,35.892
36.746,35.835
36.7,35.777
36.66,35.717
36.628,35.656
36.606,35.594
36.6,35.534
36.611,35.474
36.636,35.415
36.67,35.359
36.71,35.305
36.751,35.255
36.792,35.208
36.828,35.163
36.857,35.121
36.878,35.083
36.89,35.047
36.893,35.013
36.888,34.98
36.875,34.948
36.856,34.916
36.831,34.883
36.802,34.85
36.771,34.816
36.738,34.781
36.704,34.744
36.67,34.707
36.638,34.669
36.607,34.631
36.576,34.594
36.546,34.558
36.517,34.523
36.489,34.489
36.462,34.457
36.436,34.427
36.409,34.4
36.38,34.375
36.35,34.353
36.316,34.334
36.278,34.317
36.237,34.303
36.192,34.29
36.144,34.278
36.093,34.268
36.039,34.259
35.981,34.249
35.922,34.239
35.861,34.228
35.798,34.215
35.732,34.201
35.665,34.185
35.598,34.166
35.53,34.147
35.465,34.125
35.402,34.102
35.343,34.078
35.287,34.053
35.235,34.028
35.187,34.003
35.142,33.979
35.099,33.955
35.06,33.932
35.023,33.908
34.988,33.883
34.954,33.859
34.921,33.834
34.888,33.808
34.855,33.781
34.822,33.753
34.788,33.723
34.754,33.691
34.72,33.658
34.685,33.624
34.651,33.587
34.618,33.55
34.584,33.513
34.55,33.476
34.515,33.441
34.479,33.406
34.443,33.375
34.407,33.346
34.371,33.321
34.337,33.3
34.303,33.284
34.27,33.272
34.239,33.264
34.21,33.262
34.183,33.267
34.16,33.281
34.14,33.306
34.125,33.345
34.112,33.4
34.102,33.474
34.094,33.569
34.088,33.686
34.082,33.824
34.076,33.986
34.07,34.17
34.063,34.376
34.057,34.602
34.051,34.847
34.044,35.108
34.038,35.382
34.03,35.665
34.021,35.954
34.011,36.244
33.998,36.532
33.984,36.816
33.968,37.091
33.952,37.354
33.935,37.604
33.918,37.838
33.901,38.055
33.884,38.253
33.867,38.431
33.852,38.587
33.836,38.722
33.821,38.836
33.805,38.931
33.789,39.007
33.773,39.065
33.758,39.108
33.744,39.137
33.732,39.153
33.722,39.158
33.713,39.151
33.705,39.136
33.696,39.113
33.687,39.084
33.676,39.052
33.664,39.019
33.65,38.985
33.635,38.953
33.62,38.924
33.604,38.897
33.588,38.872
33.571,38.848
33.553,38.826
33.531,38.805
33.507,38.785
33.478,38.766
33.445,38.748
33.408,38.732
33.369,38.716
33.328,38.699
33.288,38.68
33.25,38.659
33.214,38.635
33.18,38.608
33.149,38.579
33.121,38.546
33.096,38.511
33.075,38.472
33.057,38.432
33.042,38.389
33.029,38.344
33.018,38.297
33.007,38.249
32.998,38.2
32.989,38.15
32.979,38.1
32.969,38.051
32.958,38.003
32.947,37.956
32.938,37.911
32.934,37.868
32.937,37.828
32.953,37.789
32.988,37.753
33.048,37.719
33.139,37.686
33.267,37.655
33.439,37.623
33.658,37.592
33.927,37.562
34.247,37.532
34.613,37.503
35.023,37.475
35.468,37.447
35.939,37.42
36.427,37.392
36.921,37.365
37.411,37.337
37.885,37.309
38.335,37.279
38.753,37.248
39.132,37.216
39.468,37.184
39.758,37.151
40.001,37.117
40.199,37.082
40.353,37.047
40.465,37.011
40.539,36.974
40.578,36.935
40.588,36.896
40.572,36.854
40.534,36.811
40.478,36.764
40.407,36.714
40.323,36.661
40.231,36.606
40.132,36.549
40.03,36.49
39.928,36.429
39.827,36.366
39.728,36.304
39.631,36.241
39.536,36.179
39.443,36.119
39.353,36.06
39.266,36.003
39.182,35.946
39.103,35.892
39.028,35.838
38.959,35.787
38.896,35.736
38.839,35.685
38.787,35.634
38.74,35.583
38.696,35.53
38.654,35.477
38.611,35.423
38.568,35.369
38.522,35.317
38.473,35.267
38.42,35.217
38.363,35.17
38.3,35.124
38.232,35.079
38.157,35.036
38.077,34.992
37.993,34.949
37.906,34.906
37.82,34.864
37.735,34.82
37.655,34.777
37.578,34.734
37.508,34.691
37.444,34.65
37.387,34.611
37.338,34.573
37.296,34.538
37.261,34.505
37.234,34.474
37.213,34.446
37.199,34.42
37.191,34.395
37.189,34.371
37.193,34.347
37.201,34.322
37.213,34.295
37.226,34.267
37.241,34.236
37.254,34.203
37.267,34.17
37.277,34.136
37.285,34.104
37.289,34.071
37.289,34.041
37.283,34.014
37.272,33.989
37.255,33.967
37.233,33.945
37.206,33.925
37.174,33.906
37.137,33.888
37.098,33.871
37.055,33.852
37.009,33.834
36.962,33.815
36.913,33.796
36.862,33.776
36.809,33.756
36.754,33.734
36.697,33.71
36.638,33.684
36.579,33.655
36.519,33.625
36.46,33.593
36.401,33.559
36.342,33.523
36.284,33.488
36.226,33.453
36.169,33.419
36.112,33.386
36.055,33.356
35.997,33.327
35.939,33.301
35.881,33.276
35.824,33.253
35.768,33.232
35.712,33.216
35.657,33.203
35.604,33.197
35.551,33.199
35.499,33.213
35.448,33.24
35.398,33.284
35.348,33.346
35.297,33.429
35.245,33.534
35.192,33.663
35.14,33.816
35.088,33.995
35.038,34.201
34.991,34.432
34.946,34.688
34.904,34.965
34.863,35.259
34.823,35.565
34.783,35.877
34.744,36.192
34.704,36.503
34.667,36.806
34.631,37.098
34.597,37.374
34.565,37.632
34.534,37.869
34.505,38.086
34.476,38.28
34.448,38.452
34.419,38.6
34.392,38.726
34.365,38.829
34.34,38.912
34.317,38.975
34.297,39.021
34.28,39.051
34.264,39.068
34.251,39.074
34.239,39.071
34.228,39.06
34.22,39.043
34.212,39.022
34.206,38.997
34.199,38.971
34.193,38.943
34.186,38.916
34.176,38.888
34.164,38.862
34.149,38.837
34.133,38.813
34.117,38.79
34.1,38.768
34.083,38.749
34.067,38.731
34.052,38.713
34.038,38.695
34.026,38.676
34.016,38.657
34.007,38.636
33.999,38.613
33.991,38.588
33.982,38.561
33.97,38.531
33.956,38.497
33.938,38.459
33.917,38.417
33.895,38.371
33.872,38.321
33.849,38.267
33.826,38.212
33.804,38.156
33.781,38.1
33.757,38.045
33.731,37.991
33.703,37.937
33.672,37.886
33.64,37.836
33.606,37.788
33.572,37.744
33.537,37.702
33.502,37.664
33.467,37.628
33.431,37.594
33.395,37.563
33.361,37.534
33.327,37.506
33.294,37.48
33.262,37.455
33.232,37.43
33.204,37.405
33.178,37.381
33.153,37.357
33.131,37.332
33.111,37.307
33.095,37.281
33.084,37.255
33.08,37.227
33.087,37.199
33.11,37.169
33.154,37.138
33.224,37.105
33.327,37.072
33.469,37.037
33.654,37
33.885,36.962
34.164,36.921
34.488,36.879
34.855,36.834
35.26,36.785
35.694,36.733
36.148,36.68
36.613,36.625
37.08,36.569
37.541,36.511
37.985,36.452
38.406,36.392
38.797,36.33
39.152,36.265
39.469,36.198
39.745,36.129
39.979,36.059
40.171,35.987
40.324,35.916
40.438,35.846
40.517,35.778
40.564,35.713
40.582,35.649
40.575,35.589
40.545,35.532
40.497,35.477
40.432,35.424
40.354,35.372
40.265,35.32
40.17,35.268
40.07,35.217
39.969,35.165
39.866,35.113
39.764,35.06
39.664,35.007
39.566,34.952
39.472,34.898
39.382,34.843
39.297,34.788
39.216,34.733
39.14,34.678
39.069,34.625
39.001,34.573
38.937,34.524
38.877,34.478
38.82,34.434
38.766,34.394
38.712,34.356
38.657,34.322
38.601,34.291
38.542,34.262
38.478,34.236
38.41,34.212
38.337,34.187
38.26,34.163
38.178,34.138
38.093,34.111
38.003,34.083
37.912,34.054
37.819,34.023
37.728,33.992
37.638,33.96
37.553,33.926
37.472,33.891
37.397,33.855
37.33,33.819
37.272,33.783
37.223,33.746
37.184,33.71
37.156,33.675
37.138,33.642
37.13,33.61
37.131,33.581
37.142,33.554
37.16,33.526
37.184,33.499
37.211,33.471
37.238,33.442
37.265,33.412
37.289,33.379
37.31,33.345
37.327,33.309
37.339,33.273
37.345,33.235
37.346,33.197
37.342,33.16
37.333,33.124
37.32,33.089
37.304,33.058
37.285,33.028
37.264,33.001
37.241,32.975
37.214,32.95
37.183,32.926
37.149,32.903
37.11,32.879
37.069,32.854
37.024,32.827
36.977,32.799
36.929,32.768
36.88,32.735
36.83,32.701
36.779,32.666
36.727,32.632
36.673,32.599
36.617,32.57
36.56,32.545
36.502,32.525
36.443,32.51
36.384,32.503
36.325,32.507
36.266,32.529
36.206,32.574
36.147,32.646
36.087,32.748
36.029,32.882
35.97,33.049
35.912,33.248
35.853,33.476
35.794,33.731
35.736,34.009
35.677,34.306
35.618,34.616
35.56,34.935
35.502,35.26
35.446,35.586
35.392,35.908
35.34,36.221
35.292,36.523
35.245,36.808
35.2,37.075
35.157,37.322
35.114,37.547
35.072,37.748
35.033,37.925
34.995,38.08
34.96,38.212
34.927,38.322
34.896,38.41
34.867,38.479
34.84,38.531
34.813,38.566
34.785,38.587
34.758,38.596
34.731,38.595
34.705,38.585
34.683,38.568
34.664,38.546
34.648,38.52
34.637,38.492
34.631,38.463
34.628,38.434
34.629,38.405
34.631,38.375
34.635,38.345
34.64,38.314
34.644,38.284
34.648,38.254
34.651,38.224
34.653,38.194
34.654,38.164
34.653,38.133
34.65,38.101
34.646,38.068
34.641,38.033
34.634,37.996
34.625,37.957
34.614,37.916
34.601,37.871
34.587,37.824
34.571,37.774
34.554,37.723
34.536,37.67
34.517,37.615
34.496,37.559
34.474,37.502
34.45,37.445
34.424,37.389
34.394,37.335
34.361,37.284
34.325,37.235
34.286,37.191
34.246,37.151
34.205,37.116
34.165,37.084
34.127,37.056
34.089,37.03
34.054,37.006
34.019,36.983
33.985,36.962
33.952,36.94
33.92,36.919
33.89,36.896
33.862,36.872
33.836,36.846
33.812,36.819
33.792,36.791
33.777,36.762
33.768,36.731
33.769,36.701
33.782,36.669
33.814,36.638
33.868,36.606
33.95,36.574
34.065,36.542
34.218,36.509
34.41,36.475
34.643,36.439
34.916,36.402
35.227,36.364
35.572,36.324
35.945,36.282
36.341,36.238
36.75,36.193
37.165,36.147
37.577,36.1
37.98,36.052
38.365,36.004
38.728,35.954
39.061,35.903
39.361,35.85
39.627,35.796
39.856,35.74
40.048,35.684
40.204,35.626
40.325,35.569
40.412,35.512
40.468,35.455
40.495,35.398
40.495,35.341
40.473,35.285
40.431,35.23
40.373,35.175
40.303,35.122
40.223,35.07
40.138,35.02
40.049,34.972
39.96,34.925
39.871,34.879
39.783,34.835
39.697,34.79
39.611,34.746
39.528,34.701
39.446,34.657
39.367,34.614
39.291,34.571
39.218,34.528
39.148,34.485
39.081,34.443
39.017,34.401
38.954,34.36
38.893,34.319
38.832,34.279
38.772,34.24
38.709,34.202
38.643,34.166
38.571,34.131
38.495,34.098
38.413,34.066
38.326,34.037
38.234,34.009
38.139,33.984
38.04,33.961
37.939,33.94
37.838,33.921
37.738,33.903
37.641,33.886
37.549,33.869
37.464,33.85
37.387,33.831
37.318,33.81
37.26,33.788
37.212,33.764
37.175,33.74
37.149,33.717
37.133,33.693
37.127,33.671
37.129,33.651
37.14,33.632
37.159,33.614
37.184,33.597
37.214,33.581
37.249,33.566
37.286,33.551
37.324,33.537
37.36,33.522
37.393,33.507
37.42,33.491
37.442,33.474
37.458,33.456
37.466,33.435
37.467,33.412
37.46,33.387
37.446,33.359
37.424,33.329
37.394,33.298
37.359,33.267
37.319,33.235
37.275,33.205
37.227,33.177
37.177,33.153
37.123,33.133
37.068,33.119
37.01,33.112
36.949,33.116
36.886,33.131
36.819,33.16
36.751,33.204
36.681,33.266
36.611,33.349
36.542,33.455
36.473,33.585
36.406,33.739
36.339,33.918
36.272,34.12
36.205,34.343
36.136,34.583
36.067,34.839
35.996,35.107
35.926,35.383
35.855,35.665
35.787,35.949
35.722,36.233
35.659,36.515
35.598,36.791
35.54,37.056
35.483,37.31
35.428,37.549
35.374,37.771
35.321,37.976
35.267,38.162
35.215,38.328
35.164,38.476
35.115,38.605
35.068,38.714
35.023,38.804
34.981,38.875
34.94,38.928
34.901,38.963
34.86,38.982
34.82,38.989
34.78,38.985
34.74,38.972
34.703,38.953
34.667,38.929
34.634,38.902
34.604,38.873
34.577,38.843
34.553,38.812
34.53,38.781
34.509,38.749
34.49,38.718
34.47,38.685
34.452,38.652
34.435,38.618
34.42,38.583
34.408,38.547
34.399,38.51
34.393,38.472
34.39,38.433
34.389,38.391
34.39,38.347
34.391,38.3
34.392,38.25
34.393,38.197
34.392,38.141
34.39,38.084
34.386,38.026
34.382,37.968
34.375,37.909
34.368,37.851
34.358,37.792
34.347,37.734
34.333,37.674
34.318,37.609
34.301,37.541
34.283,37.472
34.265,37.404
34.246,37.34
34.226,37.283
34.206,37.234
34.186,37.194
34.165,37.163
34.142,37.142
34.12,37.129
34.096,37.124
34.071,37.124
34.044,37.129
34.016,37.137
33.986,37.145
33.955,37.152
33.921,37.156
33.886,37.157
33.849,37.153
33.811,37.144
33.773,37.13
33.734,37.111
33.695,37.087
33.657,37.059
33.618,37.029
33.579,36.996
33.54,36.962
33.504,36.925
33.472,36.887
33.444,36.847
33.42,36.806
33.401,36.763
33.388,36.719
33.381,36.673
33.383,36.625
33.397,36.577
33.425,36.527
33.473,36.477
33.547,36.426
33.651,36.373
33.793,36.319
33.976,36.264
34.205,36.208
34.48,36.151
34.801,36.093
35.166,36.035
35.57,35.976
36.005,35.918
36.464,35.86
36.938,35.803
37.416,35.745
37.89,35.689
38.348,35.633
38.785,35.577
39.193,35.523
39.567,35.47
39.905,35.417
40.202,35.365
40.459,35.313
40.674,35.261
40.85,35.209
40.986,35.159
41.087,35.11
41.154,35.061
41.191,35.014
41.202,34.967
41.19,34.92
41.16,34.873
41.115,34.826
41.059,34.779
40.996,34.734
40.928,34.689
40.858,34.646
40.788,34.603
40.722,34.559
40.659,34.515
40.6,34.47
40.546,34.424
40.497,34.379
40.452,34.333
40.411,34.29
40.375,34.247
40.344,34.207
40.314,34.17
40.287,34.135
40.262,34.103
40.238,34.074
40.213,34.047
40.188,34.023
40.162,33.999
40.134,33.975
40.101,33.951
40.064,33.925
40.022,33.899
39.973,33.872
39.918,33.847
39.856,33.822
39.786,33.8
39.707,33.779
39.62,33.761
39.525,33.745
39.425,33.729
39.32,33.714
39.214,33.699
39.107,33.683
39.002,33.666
38.9,33.647
38.801,33.626
38.709,33.604
38.623,33.578
38.545,33.55
38.476,33.52
38.416,33.487
38.366,33.453
38.324,33.418
38.289,33.381
38.26,33.345
38.237,33.309
38.219,33.273
38.206,33.237
38.197,33.201
38.191,33.166
38.188,33.132
38.186,33.102
38.184,33.076
38.182,33.056
38.177,33.045
38.17,33.043
38.158,33.053
38.141,33.077
38.118,33.118
38.091,33.18
38.06,33.264
38.024,33.373
37.984,33.509
37.94,33.672
37.892,33.862
37.841,34.079
37.787,34.32
37.73,34.582
37.67,34.863
37.608,35.16
37.544,35.469
37.476,35.788
37.407,36.113
37.336,36.44
37.264,36.764
37.194,37.082
37.124,37.39
37.055,37.684
36.989,37.96
36.925,38.218
36.863,38.455
36.802,38.67
36.742,38.861
36.681,39.028
36.62,39.172
36.557,39.294
36.493,39.395
36.427,39.476
36.36,39.537
36.293,39.58
36.227,39.609
36.163,39.625
36.1,39.63
36.04,39.626
35.981,39.616
35.923,39.602
35.865,39.584
35.807,39.563
35.75,39.54
35.693,39.515
35.639,39.49
35.586,39.466
35.536,39.443
35.49,39.42
35.446,39.399
35.406,39.378
35.367,39.358
35.33,39.339
35.295,39.318
35.262,39.296
35.228,39.272
35.194,39.245
35.16,39.215
35.125,39.183
35.092,39.147
35.059,39.108
35.028,39.065
35,39.019
34.973,38.969
34.948,38.916
34.925,38.861
34.902,38.804
34.88,38.745
34.857,38.684
34.835,38.621
34.813,38.555
34.792,38.487
34.773,38.42
34.754,38.353
34.736,38.287
34.718,38.224
34.699,38.165
34.678,38.11
34.657,38.059
34.634,38.012
34.611,37.971
34.588,37.933
34.566,37.9
34.546,37.87
34.526,37.843
34.506,37.819
34.484,37.796
34.462,37.773
34.437,37.748
34.411,37.722
34.383,37.693
34.354,37.66
34.325,37.624
34.296,37.586
34.267,37.545
34.239,37.503
34.212,37.461
34.186,37.418
34.16,37.376
34.134,37.335
34.109,37.294
34.082,37.253
34.053,37.211
34.022,37.168
33.988,37.123
33.951,37.077
33.91,37.029
33.868,36.979
33.824,36.926
33.779,36.87
33.734,36.811
33.689,36.749
33.643,36.683
33.599,36.614
33.555,36.541
33.513,36.466
33.473,36.39
33.434,36.312
33.397,36.233
33.361,36.154
33.326,36.074
33.293,35.995
33.262,35.918
33.234,35.842
33.209,35.77
33.188,35.699
33.171,35.631
33.159,35.567
33.155,35.505
33.158,35.447
33.171,35.393
33.197,35.342
33.24,35.296
33.304,35.252
33.395,35.211
33.518,35.171
33.68,35.134
33.883,35.098
34.129,35.063
34.418,35.029
34.747,34.995
35.114,34.961
35.513,34.926
35.936,34.888
36.377,34.847
36.825,34.801
37.273,34.752
37.714,34.7
38.14,34.645
38.544,34.589
38.921,34.532
39.267,34.476
39.579,34.42
39.852,34.367
40.087,34.315
40.284,34.266
40.442,34.218
40.565,34.174
40.655,34.132
40.716,34.095
40.751,34.061
40.764,34.03
40.759,34.002
40.739,33.976
40.707,33.95
40.665,33.924
40.617,33.898
40.564,33.869
40.508,33.838
40.452,33.805
40.401,33.77
40.36,33.735
40.331,33.698
40.313,33.662
40.304,33.627
40.303,33.593
40.305,33.562
40.31,33.532
40.312,33.504
40.31,33.477
40.3,33.45
40.28,33.422
40.251,33.393
40.211,33.363
40.16,33.331
40.098,33.297
40.026,33.262
39.945,33.226
39.858,33.191
39.766,33.157
39.671,33.124
39.572,33.093
39.47,33.064
39.365,33.036
39.255,33.01
39.14,32.986
39.021,32.965
38.898,32.947
38.773,32.933
38.647,32.925
38.521,32.926
38.397,32.937
38.279,32.961
38.167,33.002
38.062,33.064
37.967,33.148
37.882,33.257
37.807,33.392
37.743,33.552
37.69,33.74
37.646,33.955
37.612,34.195
37.585,34.458
37.565,34.744
37.551,35.048
37.54,35.368
37.533,35.7
37.528,36.037
37.523,36.376
37.52,36.712
37.516,37.04
37.512,37.354
37.509,37.652
37.504,37.931
37.498,38.187
37.49,38.421
37.476,38.629
37.458,38.812
37.434,38.97
37.405,39.103
37.37,39.212
37.331,39.299
37.286,39.365
37.238,39.413
37.187,39.443
37.133,39.46
37.076,39.464
37.017,39.458
36.955,39.444
36.891,39.426
36.823,39.402
36.753,39.374
36.68,39.344
36.605,39.313
36.529,39.282
36.454,39.252
36.382,39.224
36.311,39.199
36.242,39.177
36.175,39.158
36.109,39.142
36.042,39.128
35.976,39.116
35.908,39.105
35.84,39.094
35.77,39.082
35.699,39.067
35.626,39.048
35.551,39.027
35.476,39.001
35.4,38.969
35.326,38.932
35.253,38.889
35.183,38.84
35.116,38.785
35.052,38.724
34.991,38.656
34.934,38.584
34.88,38.506
34.83,38.425
34.782,38.343
34.737,38.261
34.696,38.18
34.658,38.103
34.624,38.03
34.592,37.962
34.564,37.898
34.536,37.84
34.509,37.786
34.483,37.738
34.457,37.693
34.432,37.651
34.409,37.61
34.388,37.569
34.368,37.529
34.349,37.488
34.332,37.447
34.316,37.406
34.3,37.366
34.286,37.326
34.273,37.288
34.261,37.252
34.252,37.218
34.244,37.185
34.237,37.153
34.231,37.12
34.225,37.087
34.219,37.054
34.213,37.018
34.206,36.982
34.198,36.944
34.19,36.904
34.18,36.861
34.168,36.816
34.153,36.768
34.142,36.717
34.136,36.662
34.138,36.604
34.145,36.543
34.155,36.478
34.164,36.41
34.171,36.341
34.171,36.269
34.164,36.195
34.146,36.121
34.119,36.045
34.083,35.97
34.038,35.894
33.985,35.818
33.925,35.744
33.86,35.67
33.79,35.599
33.717,35.53
33.643,35.463
33.569,35.399
33.498,35.339
33.43,35.281
33.366,35.227
33.308,35.175
33.255,35.125
33.208,35.076
33.165,35.028
33.126,34.98
33.09,34.932
33.057,34.883
33.027,34.834
32.998,34.784
32.972,34.732
32.949,34.68
32.928,34.627
32.911,34.573
32.899,34.518
32.892,34.463
32.894,34.408
32.908,34.354
32.938,34.301
32.987,34.249
33.062,34.198
33.166,34.15
33.303,34.104
33.478,34.06
33.691,34.019
33.944,33.979
34.236,33.941
34.565,33.903
34.926,33.867
35.315,33.83
35.723,33.793
36.144,33.755
36.569,33.717
36.991,33.678
37.404,33.639
37.8,33.602
38.174,33.567
38.523,33.535
38.842,33.506
39.128,33.48
39.38,33.457
39.596,33.437
39.778,33.418
39.925,33.402
40.04,33.386
40.122,33.371
40.174,33.355
40.198,33.339
40.196,33.322
40.173,33.304
40.132,33.284
40.076,33.261
40.01,33.236
39.939,33.21
39.865,33.181
39.791,33.15
39.72,33.117
39.653,33.083
39.591,33.048
39.534,33.012
39.484,32.974
39.439,32.937
39.4,32.899
39.364,32.861
39.332,32.824
39.302,32.789
39.272,32.754
39.242,32.719
39.211,32.684
39.179,32.648
39.143,32.613
39.104,32.576
39.059,32.54
39.007,32.504
38.948,32.47
38.881,32.438
38.806,32.408
38.723,32.383
38.632,32.362
38.532,32.348
38.424,32.342
38.308,32.344
38.187,32.359
38.063,32.39
37.937,32.438
37.814,32.507
37.696,32.597
37.585,32.712
37.484,32.852
37.393,33.019
37.314,33.212
37.247,33.432
37.192,33.678
37.148,33.947
37.115,34.238
37.091,34.546
37.075,34.87
37.066,35.204
37.062,35.544
37.063,35.887
37.067,36.229
37.074,36.566
37.082,36.893
37.09,37.207
37.097,37.505
37.101,37.782
37.101,38.037
37.097,38.267
37.089,38.471
37.076,38.648
37.057,38.799
37.034,38.924
37.005,39.024
36.972,39.101
36.935,39.157
36.895,39.194
36.851,39.214
36.805,39.222
36.756,39.217
36.705,39.204
36.653,39.183
36.6,39.158
36.546,39.128
36.49,39.097
36.429,39.066
36.364,39.035
36.295,39.007
36.221,38.98
36.144,38.956
36.063,38.934
35.981,38.915
35.897,38.899
35.814,38.883
35.73,38.868
35.646,38.853
35.563,38.837
35.481,38.818
35.401,38.796
35.324,38.77
35.249,38.738
35.178,38.699
35.109,38.653
35.043,38.6
34.978,38.541
34.916,38.475
34.854,38.404
34.792,38.328
34.732,38.248
34.674,38.165
34.618,38.08
34.563,37.993
34.51,37.906
34.459,37.819
34.41,37.733
34.363,37.648
34.318,37.567
34.276,37.489
34.236,37.416
34.199,37.348
34.163,37.286
34.127,37.23
34.092,37.179
34.059,37.132
34.026,37.089
33.996,37.049
33.969,37.012
33.944,36.976
33.922,36.943
33.902,36.911
33.884,36.881
33.867,36.852
33.853,36.824
33.839,36.795
33.827,36.766
33.816,36.737
33.807,36.707
33.799,36.675
33.793,36.64
33.788,36.601
33.783,36.559
33.778,36.512
33.772,36.461
33.766,36.407
33.759,36.349
33.751,36.287
33.744,36.223
33.735,36.156
33.724,36.087
33.71,36.015
33.692,35.94
33.67,35.864
33.646,35.787
33.62,35.711
33.593,35.637
33.567,35.566
33.54,35.499
33.514,35.434
33.488,35.373
33.462,35.315
33.436,35.261
33.409,35.211
33.381,35.164
33.351,35.117
33.319,35.069
33.284,35.02
33.247,34.969
33.206,34.915
33.162,34.858
33.115,34.798
33.067,34.735
33.018,34.669
32.969,34.6
32.92,34.529
32.873,34.457
32.826,34.383
32.781,34.31
32.736,34.238
32.694,34.169
32.654,34.103
32.617,34.041
32.583,33.982
32.554,33.925
32.53,33.871
32.513,33.818
32.503,33.765
32.503,33.711
32.517,33.655
32.547,33.599
32.599,33.542
32.677,33.484
32.786,33.426
32.932,33.368
33.118,33.31
33.347,33.253
33.619,33.197
33.933,33.143
34.288,33.092
34.679,33.043
35.1,32.997
35.545,32.953
36.005,32.913
36.472,32.876
36.937,32.841
37.392,32.811
37.829,32.782
38.242,32.756
38.626,32.733
38.977,32.711
39.291,32.692
39.568,32.672
39.805,32.652
40.005,32.631
40.168,32.609
40.297,32.587
40.394,32.565
40.461,32.543
40.502,32.521
40.52,32.499
40.52,32.477
40.504,32.455
40.477,32.434
40.442,32.415
40.401,32.397
40.359,32.381
40.315,32.367
40.273,32.352
40.232,32.336
40.192,32.318
40.155,32.298
40.12,32.274
40.089,32.248
40.061,32.219
40.037,32.188
40.017,32.156
40.001,32.124
39.989,32.091
39.98,32.059
39.973,32.027
39.968,31.997
39.961,31.968
39.952,31.94
39.938,31.914
39.919,31.888
39.892,31.863
39.855,31.837
39.808,31.811
39.748,31.783
39.676,31.754
39.59,31.726
39.491,31.699
39.382,31.673
39.262,31.649
39.136,31.627
39.004,31.607
38.87,31.588
38.735,31.572
38.601,31.556
38.469,31.541
38.342,31.527
38.219,31.514
38.102,31.501
37.994,31.49
37.893,31.48
37.801,31.471
37.717,31.467
37.642,31.469
37.576,31.48
37.52,31.505
37.474,31.546
37.437,31.608
37.411,31.693
37.393,31.804
37.382,31.942
37.376,32.108
37.373,32.303
37.371,32.526
37.369,32.776
37.364,33.051
37.356,33.349
37.344,33.668
37.326,34.003
37.305,34.351
37.278,34.705
37.248,35.061
37.214,35.415
37.176,35.761
37.134,36.097
37.09,36.419
37.043,36.724
36.993,37.012
36.94,37.28
36.884,37.526
36.826,37.749
36.765,37.948
36.702,38.121
36.637,38.27
36.57,38.394
36.501,38.496
36.43,38.577
36.357,38.639
36.281,38.683
36.204,38.711
36.123,38.725
36.041,38.727
35.957,38.718
35.872,38.699
35.786,38.672
35.7,38.639
35.615,38.602
35.532,38.562
35.452,38.519
35.373,38.477
35.297,38.434
35.224,38.392
35.153,38.349
35.084,38.307
35.018,38.266
34.954,38.227
34.893,38.188
34.835,38.15
34.78,38.113
34.728,38.076
34.68,38.038
34.636,37.999
34.595,37.958
34.557,37.915
34.52,37.869
34.484,37.821
34.449,37.77
34.414,37.718
34.379,37.664
34.345,37.608
34.312,37.551
34.28,37.492
34.249,37.432
34.219,37.372
34.187,37.314
34.155,37.257
34.121,37.205
34.087,37.157
34.053,37.113
34.019,37.075
33.987,37.041
33.956,37.012
33.926,36.987
33.897,36.964
33.868,36.943
33.839,36.924
33.81,36.907
33.782,36.89
33.756,36.875
33.73,36.861
33.706,36.848
33.682,36.835
33.66,36.825
33.638,36.815
33.617,36.804
33.595,36.793
33.571,36.78
33.546,36.765
33.518,36.747
33.489,36.726
33.458,36.702
33.426,36.674
33.392,36.642
33.358,36.606
33.323,36.565
33.287,36.52
33.252,36.472
33.218,36.419
33.186,36.364
33.156,36.306
33.126,36.247
33.098,36.185
33.069,36.121
33.04,36.056
33.012,35.989
32.984,35.922
32.955,35.854
32.927,35.785
32.897,35.716
32.865,35.649
32.832,35.583
32.797,35.52
32.761,35.459
32.725,35.401
32.687,35.346
32.648,35.293
32.609,35.241
32.568,35.189
32.526,35.138
32.482,35.087
32.437,35.035
32.392,34.983
32.346,34.931
32.302,34.878
32.258,34.826
32.216,34.774
32.176,34.724
32.137,34.675
32.1,34.626
32.065,34.577
32.032,34.529
32.002,34.483
31.975,34.437
31.951,34.392
31.929,34.35
31.91,34.31
31.894,34.273
31.88,34.239
31.869,34.206
31.86,34.175
31.857,34.143
31.86,34.112
31.873,34.082
31.902,34.051
31.951,34.02
32.027,33.989
32.137,33.958
32.285,33.928
32.478,33.899
32.718,33.871
33.008,33.845
33.346,33.822
33.729,33.803
34.152,33.786
34.606,33.77
35.082,33.757
35.571,33.743
36.064,33.729
36.553,33.714
37.031,33.697
37.49,33.677
37.924,33.655
38.326,33.63
38.692,33.603
39.018,33.573
39.302,33.542
39.543,33.508
39.741,33.472
39.897,33.434
40.013,33.396
40.093,33.357
40.141,33.319
40.161,33.282
40.159,33.246
40.138,33.21
40.103,33.175
40.057,33.142
40.004,33.111
39.945,33.082
39.885,33.055
39.825,33.03
39.768,33.005
39.714,32.981
39.664,32.957
39.618,32.931
39.576,32.906
39.538,32.88
39.503,32.855
39.47,32.833
39.439,32.813
39.408,32.799
39.378,32.791
39.349,32.793
39.32,32.808
39.291,32.839
39.262,32.89
39.233,32.964
39.202,33.063
39.168,33.19
39.13,33.346
39.085,33.531
39.034,33.744
38.974,33.986
38.903,34.253
38.821,34.542
38.728,34.85
38.623,35.172
38.509,35.503
38.388,35.838
38.261,36.174
38.131,36.505
37.999,36.829
37.868,37.14
37.739,37.436
37.612,37.714
37.489,37.971
37.372,38.205
37.262,38.416
37.16,38.604
37.067,38.769
36.985,38.91
36.914,39.03
36.855,39.129
36.807,39.208
36.771,39.268
36.744,39.312
36.726,39.34
36.714,39.356
36.704,39.36
36.694,39.355
36.682,39.343
36.669,39.326
36.654,39.306
36.637,39.283
36.618,39.258
36.597,39.232
36.576,39.207
36.554,39.182
36.532,39.158
36.51,39.136
36.488,39.116
36.466,39.097
36.443,39.079
36.417,39.061
36.388,39.043
36.354,39.024
36.317,39.003
36.276,38.979
36.232,38.951
36.184,38.918
36.134,38.881
36.08,38.839
36.022,38.79
35.96,38.735
35.893,38.674
35.822,38.608
35.748,38.536
35.672,38.46
35.593,38.38
35.513,38.299
35.432,38.216
35.351,38.133
35.27,38.051
35.189,37.971
35.108,37.895
35.029,37.824
34.951,37.757
34.876,37.696
34.802,37.64
34.73,37.589
34.66,37.543
34.591,37.502
34.525,37.464
34.459,37.431
34.396,37.401
34.335,37.373
34.276,37.348
34.218,37.324
34.162,37.302
34.107,37.282
34.053,37.264
34.001,37.246
33.95,37.228
33.902,37.209
33.856,37.188
33.815,37.164
33.777,37.137
33.743,37.107
33.713,37.073
33.687,37.038
33.663,37
33.64,36.961
33.618,36.919
33.595,36.875
33.573,36.829
33.549,36.781
33.524,36.732
33.497,36.681
33.468,36.629
33.438,36.575
33.408,36.521
33.378,36.466
33.35,36.411
33.323,36.355
33.298,36.299
33.275,36.243
33.252,36.185
33.23,36.126
33.207,36.065
33.185,36
33.164,35.933
33.142,35.862
33.12,35.789
33.099,35.712
33.078,35.634
33.058,35.555
33.039,35.475
33.019,35.394
33,35.315
32.981,35.237
32.964,35.161
32.949,35.088
32.934,35.018
32.92,34.949
32.906,34.882
32.893,34.817
32.881,34.752
32.868,34.683
32.856,34.612
32.843,34.539
32.829,34.465
32.812,34.393
32.794,34.324
32.772,34.259
32.749,34.197
32.724,34.142
32.697,34.092
32.67,34.049
32.642,34.013
32.615,33.982
32.588,33.955
32.56,33.933
32.531,33.912
32.501,33.893
32.469,33.875
32.437,33.856
32.403,33.835
32.368,33.813
32.334,33.789
32.298,33.761
32.262,33.73
32.225,33.696
32.187,33.659
32.149,33.621
32.112,33.582
32.076,33.543
32.042,33.505
32.009,33.468
31.979,33.433
31.951,33.399
31.926,33.366
31.903,33.336
31.884,33.308
31.87,33.282
31.863,33.257
31.865,33.233
31.881,33.21
31.916,33.187
31.974,33.163
32.061,33.138
32.181,33.112
32.341,33.084
32.543,33.056
32.79,33.026
33.082,32.995
33.418,32.963
33.794,32.931
34.204,32.897
34.641,32.863
35.098,32.828
35.566,32.794
36.037,32.762
36.503,32.731
36.956,32.702
37.389,32.674
37.797,32.647
38.173,32.621
38.515,32.593
38.818,32.564
39.081,32.533
39.303,32.5
39.484,32.467
39.625,32.434
39.727,32.402
39.794,32.373
39.83,32.349
39.838,32.332
39.823,32.325
39.788,32.333
39.737,32.357
39.673,32.401
39.6,32.469
39.52,32.561
39.436,32.68
39.351,32.827
39.267,33.004
39.184,33.209
39.104,33.443
39.028,33.703
38.955,33.988
38.885,34.296
38.82,34.622
38.758,34.962
38.701,35.31
38.648,35.664
38.6,36.018
38.556,36.368
38.517,36.711
38.482,37.043
38.45,37.362
38.418,37.665
38.383,37.95
38.345,38.214
38.299,38.455
38.244,38.672
38.179,38.864
38.104,39.03
38.018,39.172
37.923,39.29
37.819,39.385
37.709,39.461
37.593,39.517
37.474,39.555
37.353,39.578
37.231,39.587
37.11,39.585
36.992,39.574
36.879,39.556
36.772,39.534
36.674,39.508
36.585,39.48
36.507,39.45
36.441,39.42
36.386,39.39
36.345,39.36
36.317,39.333
36.3,39.307
36.294,39.284
36.297,39.262
36.308,39.243
36.324,39.224
36.344,39.207
36.366,39.189
36.387,39.17
36.407,39.148
36.423,39.123
36.434,39.093
36.44,39.057
36.441,39.017
36.436,38.971
36.425,38.92
36.407,38.865
36.383,38.804
36.353,38.74
36.314,38.672
36.269,38.601
36.216,38.528
36.156,38.453
36.091,38.378
36.021,38.303
35.947,38.23
35.871,38.159
35.794,38.092
35.716,38.028
35.638,37.968
35.559,37.913
35.479,37.861
35.398,37.814
35.317,37.772
35.235,37.735
35.154,37.7
35.072,37.668
34.992,37.637
34.911,37.608
34.831,37.579
34.751,37.549
34.671,37.519
34.592,37.489
34.513,37.457
34.435,37.422
34.359,37.385
34.285,37.344
34.212,37.3
34.143,37.252
34.076,37.201
34.012,37.148
33.951,37.093
33.893,37.038
33.837,36.982
33.784,36.927
33.733,36.874
33.684,36.823
33.636,36.774
33.589,36.726
33.543,36.678
33.5,36.629
33.458,36.578
33.419,36.525
33.383,36.469
33.35,36.41
33.32,36.349
33.292,36.284
33.266,36.217
33.241,36.148
33.215,36.077
33.19,36.003
33.164,35.927
33.138,35.847
33.111,35.765
33.084,35.681
33.057,35.595
33.032,35.51
33.008,35.425
32.987,35.342
32.969,35.263
32.955,35.188
32.945,35.118
32.938,35.053
32.934,34.991
32.932,34.932
32.931,34.875
32.931,34.821
32.932,34.769
32.931,34.717
32.93,34.666
32.927,34.615
32.923,34.564
32.917,34.513
32.908,34.463
32.897,34.414
32.883,34.364
32.867,34.315
32.849,34.266
32.829,34.219
32.807,34.173
32.783,34.128
32.757,34.085
32.728,34.042
32.698,34.001
32.666,33.96
32.633,33.922
32.598,33.884
32.562,33.848
32.525,33.813
32.488,33.78
32.45,33.746
32.412,33.713
32.373,33.679
32.333,33.645
32.292,33.61
32.25,33.574
32.208,33.537
32.166,33.5
32.124,33.463
32.082,33.426
32.039,33.39
31.998,33.356
31.958,33.324
31.919,33.295
31.882,33.269
31.847,33.247
31.814,33.228
31.782,33.211
31.753,33.197
31.729,33.182
31.71,33.168
31.699,33.151
31.697,33.133
31.708,33.112
31.735,33.09
31.784,33.065
31.858,33.04
31.964,33.012
32.109,32.983
32.296,32.953
32.531,32.922
32.814,32.89
33.146,32.856
33.523,32.82
33.943,32.782
34.398,32.742
34.88,32.701
35.381,32.658
35.891,32.614
36.4,32.57
36.899,32.527
37.381,32.486
37.836,32.446
38.258,32.41
38.643,32.376
38.986,32.346
39.285,32.318
39.537,32.293
39.744,32.27
39.906,32.249
40.027,32.228
40.11,32.21
40.158,32.194
40.178,32.181
40.172,32.174
40.147,32.177
40.107,32.191
40.056,32.221
39.996,32.272
39.929,32.347
39.86,32.45
39.788,32.582
39.716,32.745
39.644,32.94
39.574,33.166
39.507,33.421
39.444,33.703
39.384,34.009
39.33,34.335
39.281,34.677
39.239,35.03
39.203,35.39
39.174,35.75
39.15,36.107
39.131,36.454
39.114,36.788
39.099,37.107
39.082,37.407
39.062,37.686
39.037,37.943
39.004,38.174
38.964,38.38
38.914,38.561
38.853,38.716
38.782,38.846
38.701,38.952
38.61,39.036
38.51,39.099
38.402,39.144
38.288,39.174
38.17,39.19
38.048,39.197
37.924,39.196
37.798,39.191
37.672,39.182
37.548,39.169
37.426,39.153
37.309,39.136
37.198,39.117
37.094,39.098
37,39.079
36.915,39.061
36.842,39.044
36.78,39.031
36.73,39.018
36.692,39.007
36.663,38.997
36.642,38.986
36.626,38.974
36.614,38.961
36.604,38.945
36.594,38.927
36.584,38.906
36.574,38.879
36.563,38.849
36.551,38.813
36.538,38.772
36.522,38.726
36.502,38.674
36.479,38.616
36.452,38.553
36.421,38.486
36.387,38.415
36.348,38.34
36.306,38.263
36.259,38.184
36.209,38.106
36.155,38.029
36.098,37.954
36.04,37.883
35.98,37.818
35.919,37.757
35.856,37.702
35.792,37.653
35.727,37.609
35.66,37.569
35.592,37.533
35.523,37.5
35.452,37.469
35.38,37.44
35.308,37.413
35.235,37.385
35.162,37.358
35.089,37.329
35.016,37.299
34.944,37.265
34.871,37.228
34.798,37.187
34.724,37.142
34.649,37.092
34.574,37.038
34.498,36.981
34.422,36.922
34.346,36.86
34.271,36.797
34.198,36.733
34.125,36.668
34.055,36.602
33.985,36.536
33.918,36.47
33.853,36.404
33.791,36.34
33.732,36.276
33.676,36.213
33.622,36.152
33.57,36.091
33.52,36.032
33.47,35.973
33.422,35.913
33.376,35.851
33.332,35.787
33.29,35.721
33.249,35.654
33.211,35.584
33.176,35.513
33.143,35.441
33.112,35.367
33.083,35.292
33.055,35.217
33.03,35.141
33.008,35.065
32.988,34.99
32.97,34.916
32.953,34.843
32.937,34.773
32.921,34.704
32.903,34.638
32.884,34.576
32.863,34.517
32.841,34.461
32.818,34.407
32.795,34.355
32.771,34.305
32.746,34.256
32.722,34.206
32.697,34.156
32.674,34.104
32.652,34.051
32.632,33.996
32.614,33.94
32.599,33.884
32.585,33.828
32.572,33.772
32.56,33.718
32.549,33.665
32.538,33.614
32.526,33.565
32.513,33.515
32.499,33.466
32.484,33.417
32.467,33.367
32.448,33.318
32.428,33.268
32.405,33.219
32.38,33.17
32.353,33.123
32.324,33.077
32.293,33.034
32.261,32.994
32.228,32.957
32.192,32.924
32.155,32.893
32.116,32.864
32.075,32.836
32.034,32.81
31.991,32.784
31.947,32.759
31.901,32.733
31.855,32.708
31.809,32.684
31.763,32.66
31.717,32.636
31.672,32.614
31.628,32.592
31.584,32.571
31.54,32.548
31.498,32.526
31.458,32.502
31.42,32.477
31.383,32.451
31.349,32.423
31.315,32.393
31.284,32.36
31.256,32.324
31.231,32.285
31.21,32.244
31.197,32.201
31.193,32.155
31.203,32.108
31.231,32.061
31.282,32.013
31.361,31.967
31.474,31.921
31.629,31.879
31.829,31.839
32.079,31.802
32.383,31.77
32.74,31.74
33.147,31.714
33.599,31.691
34.087,31.67
34.604,31.652
35.137,31.635
35.678,31.62
36.214,31.605
36.735,31.591
37.232,31.577
37.695,31.561
38.12,31.545
38.499,31.527
38.831,31.508
39.114,31.488
39.347,31.469
39.532,31.451
39.671,31.439
39.765,31.435
39.819,31.442
39.838,31.465
39.826,31.507
39.789,31.571
39.734,31.658
39.664,31.772
39.586,31.913
39.502,32.081
39.417,32.275
39.332,32.494
39.248,32.736
39.165,32.999
39.085,33.278
39.005,33.57
38.927,33.871
38.852,34.177
38.78,34.483
38.711,34.786
38.646,35.081
38.586,35.364
38.532,35.632
38.484,35.879
38.442,36.104
38.406,36.305
38.373,36.48
38.344,36.628
38.316,36.753
38.288,36.854
38.258,36.935
38.223,36.996
38.183,37.041
38.135,37.071
38.078,37.088
38.011,37.094
37.934,37.091
37.848,37.081
37.754,37.067
37.654,37.051
37.548,37.034
37.438,37.017
37.325,37
37.21,36.983
37.095,36.967
36.979,36.952
36.864,36.938
36.751,36.924
36.64,36.912
36.534,36.902
36.432,36.892
36.337,36.883
36.253,36.873
36.18,36.863
36.121,36.852
36.076,36.838
36.044,36.821
36.025,36.798
36.017,36.769
36.017,36.736
36.024,36.698
36.035,36.657
36.05,36.617
36.067,36.58
36.085,36.546
36.102,36.515
36.116,36.484
36.125,36.451
36.13,36.414
36.128,36.373
36.12,36.327
36.105,36.276
36.083,36.22
36.052,36.161
36.014,36.099
35.969,36.035
35.918,35.971
35.861,35.908
35.8,35.846
35.734,35.786
35.665,35.73
35.593,35.678
35.519,35.63
35.443,35.587
35.367,35.549
35.292,35.517
35.218,35.49
35.146,35.468
35.074,35.45
35.004,35.436
34.934,35.424
34.866,35.412
34.798,35.401
34.731,35.386
34.664,35.368
34.597,35.345
34.529,35.317
34.46,35.283
34.389,35.246
34.318,35.206
34.245,35.162
34.171,35.117
34.098,35.069
34.027,35.021
33.957,34.97
33.89,34.918
33.826,34.866
33.764,34.814
33.705,34.763
33.649,34.713
33.596,34.667
33.547,34.622
33.502,34.579
33.459,34.537
33.419,34.497
33.381,34.456
33.343,34.415
33.305,34.372
33.265,34.329
33.223,34.286
33.179,34.241
33.134,34.194
33.09,34.147
33.047,34.098
33.007,34.05
32.969,34.002
32.935,33.956
32.905,33.912
32.878,33.871
32.854,33.833
32.833,33.797
32.815,33.764
32.798,33.732
32.782,33.701
32.767,33.67
32.751,33.639
32.735,33.608
32.719,33.575
32.702,33.54
32.685,33.503
32.668,33.464
32.65,33.424
32.632,33.383
32.613,33.343
32.594,33.304
32.576,33.267
32.558,33.231
32.541,33.197
32.527,33.167
32.513,33.139
32.501,33.114
32.489,33.091
32.478,33.069
32.466,33.047
32.454,33.026
32.441,33.005
32.428,32.985
32.414,32.963
32.399,32.941
32.383,32.919
32.367,32.896
32.35,32.873
32.331,32.851
32.312,32.83
32.292,32.808
32.271,32.787
32.249,32.765
32.226,32.742
32.201,32.72
32.175,32.697
32.148,32.673
32.121,32.649
32.094,32.624
32.066,32.598
32.038,32.572
32.01,32.548
31.981,32.524
31.952,32.5
31.924,32.478
31.895,32.458
31.867,32.439
31.839,32.42
31.811,32.401
31.783,32.382
31.754,32.362
31.726,32.341
31.698,32.319
31.67,32.295
31.644,32.268
31.618,32.239
31.595,32.209
31.575,32.179
31.558,32.15
31.545,32.124
31.537,32.101
31.533,32.083
31.539,32.07
31.557,32.064
31.593,32.063
31.654,32.069
31.748,32.082
31.881,32.104
32.058,32.136
32.285,32.18
32.562,32.237
32.891,32.309
33.267,32.399
33.686,32.505
34.142,32.629
34.625,32.77
35.126,32.928
35.635,33.1
36.142,33.285
36.637,33.481
37.109,33.685
37.553,33.893
37.962,34.101
38.331,34.306
38.656,34.505
38.937,34.696
39.171,34.875
39.359,35.043
39.502,35.197
39.603,35.337
39.663,35.462
39.688,35.572
39.679,35.669
39.643,35.75
39.583,35.818
39.504,35.872
39.41,35.913
39.306,35.943
39.197,35.964
39.085,35.978
38.973,35.985
38.865,35.987
38.76,35.985
38.662,35.981
38.569,35.974
38.482,35.966
38.401,35.957
38.325,35.945
38.254,35.932
38.188,35.919
38.127,35.906
38.069,35.894
38.016,35.882
37.967,35.872
37.92,35.862
37.876,35.854
37.832,35.846
37.787,35.839
37.739,35.831
37.688,35.823
37.63,35.815
37.566,35.804
37.494,35.791
37.414,35.776
37.324,35.756
37.227,35.733
37.123,35.705
37.016,35.673
36.906,35.636
36.797,35.594
36.691,35.548
36.589,35.498
36.493,35.444
36.406,35.388
36.331,35.331
36.269,35.275
36.22,35.221
36.183,35.172
36.155,35.129
36.137,35.092
36.126,35.062
36.122,35.04
36.125,35.023
36.132,35.011
36.144,35.003
36.158,34.997
36.175,34.991
36.192,34.986
36.207,34.98
36.22,34.973
36.23,34.964
36.235,34.955
36.235,34.943
36.23,34.931
36.219,34.917
36.202,34.902
36.18,34.886
36.152,34.87
36.118,34.853
36.08,34.835
36.036,34.817
35.986,34.799
35.933,34.78
35.875,34.762
35.813,34.743
35.747,34.725
35.68,34.705
35.611,34.685
35.54,34.663
35.469,34.638
35.398,34.61
35.328,34.578
35.257,34.544
35.186,34.507
35.115,34.468
35.042,34.427
34.967,34.386
34.891,34.344
34.813,34.302
34.734,34.261
34.654,34.219
34.573,34.178
34.494,34.137
34.416,34.097
34.339,34.058
34.263,34.022
34.189,33.987
34.116,33.954
34.044,33.924
33.974,33.894
33.907,33.866
33.843,33.838
33.783,33.809
33.726,33.779
33.673,33.747
33.621,33.712
33.572,33.675
33.524,33.635
33.479,33.593
33.437,33.55
33.397,33.507
33.361,33.465
33.327,33.424
33.295,33.387
33.264,33.352
33.234,33.32
33.203,33.289
33.172,33.26
33.141,33.232
33.111,33.205
33.081,33.18
33.053,33.157
33.026,33.135
33.001,33.116
32.977,33.099
32.955,33.085
32.935,33.073
32.916,33.064
32.898,33.056
32.883,33.05
32.871,33.044
32.86,33.039
32.851,33.033
32.843,33.025
32.834,33.016
32.826,33.004
32.818,32.989
32.81,32.971
32.803,32.95
32.795,32.928
32.788,32.903
32.781,32.877
32.773,32.85
32.766,32.823
32.759,32.796
32.753,32.769
32.746,32.744
32.738,32.72
32.729,32.697
32.717,32.675
32.702,32.656
32.685,32.638
32.663,32.622
32.639,32.608
32.611,32.596
32.581,32.587
32.547,32.578
32.511,32.571
32.472,32.565
32.432,32.559
32.389,32.553
32.344,32.547
32.299,32.54
32.252,32.531
32.206,32.521
32.16,32.508
32.114,32.493
32.068,32.476
32.022,32.455
31.976,32.432
31.931,32.408
31.887,32.383
31.845,32.358
31.805,32.332
31.768,32.307
31.733,32.283
31.701,32.259
31.671,32.238
31.644,32.219
31.621,32.202
31.601,32.189
31.587,32.18
31.58,32.175
31.583,32.175
31.6,32.18
31.636,32.192
31.696,32.213
31.789,32.243
31.921,32.286
32.1,32.341
32.33,32.412
32.616,32.497
32.959,32.599
33.357,32.717
33.807,32.851
34.3,33
34.828,33.163
35.38,33.339
35.943,33.526
36.508,33.72
37.061,33.919
37.593,34.119
38.093,34.316
38.555,34.507
38.973,34.691
39.343,34.864
39.662,35.025
39.929,35.173
40.146,35.308
40.312,35.429
40.431,35.536
40.507,35.628
40.543,35.705
40.545,35.769
40.519,35.82
40.469,35.859
40.398,35.888
40.312,35.909
40.215,35.924
40.11,35.935
40.002,35.942
39.893,35.946
39.787,35.947
39.686,35.947
39.591,35.945
39.504,35.94
39.426,35.935
39.356,35.929
39.294,35.922
39.239,35.917
39.189,35.912
39.144,35.909
39.102,35.907
39.062,35.908
39.023,35.911
38.984,35.917
38.946,35.925
38.908,35.934
38.87,35.945
38.832,35.956
38.792,35.966
38.751,35.974
38.706,35.979
38.656,35.981
38.6,35.978
38.536,35.971
38.463,35.958
38.38,35.938
38.289,35.912
38.188,35.881
38.079,35.844
37.964,35.802
37.845,35.755
37.722,35.705
37.599,35.652
37.478,35.599
37.36,35.547
37.246,35.496
37.138,35.449
37.037,35.406
36.942,35.366
36.854,35.332
36.773,35.301
36.698,35.275
36.629,35.253
36.567,35.236
36.511,35.224
36.461,35.215
36.418,35.21
36.381,35.208
36.352,35.208
36.329,35.207
36.313,35.205
36.303,35.201
36.296,35.195
36.291,35.189
36.284,35.182
36.275,35.174
36.262,35.164
36.244,35.15
36.22,35.134
36.19,35.113
36.153,35.09
36.111,35.064
36.064,35.035
36.012,35.005
35.956,34.973
35.896,34.941
35.832,34.907
35.766,34.873
35.697,34.839
35.626,34.804
35.553,34.769
35.477,34.735
35.401,34.702
35.323,34.669
35.244,34.636
35.165,34.603
35.086,34.57
35.006,34.537
34.927,34.503
34.848,34.469
34.768,34.435
34.688,34.401
34.608,34.369
34.527,34.339
34.447,34.31
34.367,34.283
34.287,34.257
34.209,34.231
34.131,34.205
34.055,34.177
33.981,34.148
33.907,34.116
33.833,34.081
33.759,34.045
33.684,34.007
33.61,33.968
33.537,33.928
33.465,33.889
33.396,33.85
33.33,33.812
33.266,33.778
33.204,33.746
33.144,33.716
33.087,33.688
33.033,33.662
32.982,33.637
32.936,33.613
32.894,33.59
32.857,33.567
32.824,33.544
32.794,33.522
32.767,33.501
32.741,33.481
32.717,33.463
32.692,33.447
32.667,33.432
32.642,33.419
32.618,33.406
32.594,33.393
32.57,33.379
32.547,33.365
32.525,33.351
32.503,33.337
32.483,33.324
32.463,33.311
32.445,33.298
32.429,33.286
32.415,33.273
32.402,33.261
32.39,33.247
32.378,33.233
32.365,33.217
32.352,33.201
32.339,33.184
32.324,33.164
32.31,33.141
32.296,33.118
32.283,33.095
32.271,33.072
32.259,33.051
32.248,33.031
32.238,33.014
32.23,32.999
32.223,32.988
32.218,32.98
32.214,32.975
32.212,32.971
32.209,32.967
32.205,32.963
32.201,32.959
32.195,32.953
32.189,32.945
32.181,32.937
32.172,32.927
32.161,32.917
32.149,32.906
32.134,32.895
32.116,32.883
32.096,32.872
32.074,32.861
32.05,32.849
32.025,32.837
31.998,32.823
31.97,32.807
31.94,32.789
31.909,32.767
31.878,32.744
31.846,32.718
31.813,32.693
31.779,32.669
31.745,32.648
31.71,32.63
31.675,32.615
31.64,32.603
31.605,32.595
31.571,32.59
31.536,32.588
31.502,32.589
31.469,32.593
31.436,32.598
31.406,32.603
31.377,32.608
31.352,32.614
31.332,32.621
31.32,32.63
31.318,32.643
31.331,32.663
31.365,32.69
31.424,32.729
31.518,32.78
31.653,32.847
31.838,32.928
32.079,33.026
32.381,33.141
32.745,33.272
33.168,33.418
33.646,33.578
34.17,33.747
34.732,33.925
35.319,34.107
35.917,34.29
36.514,34.471
37.096,34.646
37.652,34.814
38.173,34.971
38.65,35.118
39.079,35.252
39.455,35.372
39.777,35.478
40.044,35.57
40.26,35.649
40.427,35.715
40.549,35.77
40.63,35.815
40.676,35.85
40.691,35.876
40.679,35.894
40.646,35.904
40.595,35.908
40.53,35.906
40.454,35.899
40.372,35.888
40.285,35.874
40.195,35.858
40.103,35.84
40.011,35.821
39.92,35.802
39.829,35.784
39.74,35.768
39.654,35.753
39.569,35.74
39.487,35.729
39.408,35.722
39.332,35.718
39.259,35.717
39.19,35.72
39.122,35.725
39.057,35.733
38.991,35.741
38.925,35.748
38.858,35.753
38.789,35.755
38.717,35.754
38.642,35.749
38.564,35.74
38.483,35.728
38.397,35.711
38.307,35.692
38.211,35.67
38.109,35.644
38.001,35.615
37.885,35.582
37.764,35.546
37.636,35.507
37.506,35.467
37.373,35.425
37.242,35.383
37.113,35.342
36.991,35.304
36.878,35.269
36.775,35.237
36.684,35.21
36.606,35.187
36.541,35.168
36.49,35.151
36.45,35.137
36.422,35.125
36.405,35.115
36.397,35.105
36.397,35.095
36.404,35.085
36.416,35.075
36.432,35.066
36.451,35.057
36.471,35.046
36.491,35.035
36.509,35.022
36.523,35.007
36.53,34.991
36.529,34.974
36.52,34.956
36.501,34.938
36.473,34.921
36.435,34.903
36.389,34.887
36.337,34.872
36.279,34.856
36.216,34.841
36.15,34.826
36.081,34.81
36.011,34.793
35.94,34.774
35.868,34.753
35.797,34.731
35.727,34.708
35.655,34.684
35.583,34.66
35.509,34.635
35.433,34.611
35.355,34.586
35.278,34.562
35.199,34.538
35.121,34.515
35.04,34.492
34.957,34.469
34.872,34.447
34.785,34.425
34.697,34.401
34.607,34.376
34.519,34.351
34.431,34.325
34.345,34.298
34.26,34.27
34.178,34.241
34.098,34.21
34.022,34.178
33.948,34.144
33.877,34.109
33.809,34.074
33.744,34.04
33.683,34.008
33.625,33.978
33.569,33.95
33.517,33.923
33.468,33.898
33.423,33.874
33.381,33.85
33.343,33.825
33.308,33.8
33.277,33.774
33.247,33.748
33.22,33.722
33.194,33.696
33.171,33.671
33.151,33.648
33.134,33.627
33.12,33.61
33.11,33.596
33.101,33.585
33.095,33.577
33.088,33.571
33.082,33.567
33.076,33.565
33.069,33.562
33.062,33.559
33.054,33.554
33.042,33.548
33.027,33.538
33.009,33.526
32.987,33.51
32.961,33.492
32.931,33.472
32.9,33.45
32.868,33.427
32.835,33.403
32.803,33.38
32.772,33.356
32.742,33.332
32.714,33.308
32.686,33.285
32.658,33.264
32.631,33.245
32.605,33.228
32.581,33.212
32.559,33.197
32.538,33.182
32.518,33.167
32.498,33.151
32.481,33.134
32.464,33.116
32.45,33.097
32.438,33.078
32.429,33.058
32.426,33.038
32.43,33.018
32.444,32.999
32.473,32.979
32.521,32.961
32.595,32.946
32.698,32.932
32.837,32.921
33.016,32.912
33.238,32.903
33.505,32.895
33.816,32.886
34.169,32.876
34.558,32.865
34.977,32.854
35.42,32.841
35.877,32.828
36.338,32.813
36.796,32.797
37.242,32.781
37.667,32.763
38.066,32.746
38.431,32.728
38.759,32.71
39.047,32.693
39.293,32.677
39.497,32.664
39.66,32.651
39.785,32.641
39.874,32.632
39.93,32.625
39.958,32.619
39.96,32.615
39.941,32.613
39.905,32.613
39.856,32.615
39.797,32.621
39.73,32.63
39.657,32.644
39.58,32.663
39.501,32.691
39.423,32.728
39.345,32.778
39.268,32.84
39.194,32.916
39.12,33.006
39.048,33.111
38.978,33.23
38.909,33.361
38.842,33.504
38.776,33.655
38.712,33.812
38.647,33.974
38.582,34.138
38.516,34.3
38.45,34.46
38.382,34.614
38.312,34.76
38.239,34.895
38.161,35.019
38.077,35.129
37.986,35.224
37.887,35.303
37.779,35.366
37.663,35.414
37.538,35.447
37.405,35.466
37.266,35.474
37.124,35.472
36.983,35.461
36.844,35.445
36.713,35.424
36.591,35.399
36.482,35.372
36.387,35.343
36.307,35.313
36.243,35.282
36.195,35.253
36.163,35.225
36.147,35.2
36.147,35.178
36.163,35.161
36.194,35.148
36.237,35.139
36.292,35.136
36.356,35.137
36.427,35.142
36.501,35.149
36.577,35.158
36.653,35.168
36.726,35.179
36.795,35.189
36.857,35.198
36.911,35.205
36.955,35.209
36.991,35.21
37.015,35.207
37.028,35.199
37.031,35.186
37.024,35.167
37.008,35.142
36.984,35.113
36.954,35.078
36.916,35.039
36.872,34.998
36.821,34.955
36.762,34.913
36.697,34.872
36.625,34.833
36.546,34.798
36.464,34.766
36.38,34.737
36.295,34.711
36.21,34.689
36.127,34.671
36.044,34.654
35.963,34.64
35.881,34.628
35.799,34.618
35.716,34.61
35.632,34.603
35.546,34.597
35.46,34.59
35.374,34.583
35.289,34.576
35.206,34.567
35.126,34.557
35.049,34.545
34.975,34.532
34.903,34.517
34.833,34.502
34.765,34.487
34.697,34.471
34.632,34.455
34.569,34.438
34.511,34.421
34.456,34.404
34.406,34.386
34.361,34.368
34.322,34.349
34.287,34.33
34.257,34.311
34.231,34.293
34.209,34.274
34.189,34.256
34.171,34.238
34.155,34.22
34.138,34.204
34.122,34.188
34.104,34.174
34.086,34.16
34.066,34.146
34.044,34.132
34.021,34.119
33.994,34.105
33.964,34.089
33.93,34.073
33.892,34.055
33.851,34.035
33.807,34.013
33.762,33.989
33.716,33.963
33.67,33.935
33.624,33.907
33.579,33.877
33.534,33.848
33.488,33.818
33.442,33.79
33.396,33.763
33.35,33.737
33.304,33.714
33.26,33.694
33.217,33.676
33.177,33.662
33.141,33.65
33.109,33.639
33.083,33.629
33.065,33.617
33.057,33.603
33.061,33.587
33.082,33.57
33.122,33.553
33.187,33.538
33.281,33.524
33.408,33.511
33.573,33.501
33.777,33.494
34.022,33.489
34.307,33.487
34.63,33.488
34.985,33.491
35.365,33.495
35.764,33.5
36.175,33.505
36.59,33.51
36.999,33.516
37.397,33.52
37.775,33.524
38.127,33.528
38.45,33.529
38.738,33.529
38.991,33.527
39.207,33.523
39.389,33.517
39.534,33.51
39.645,33.501
39.723,33.49
39.771,33.478
39.789,33.466
39.781,33.454
39.749,33.442
39.697,33.432
39.629,33.42
39.548,33.409
39.457,33.397
39.358,33.386
39.255,33.374
39.149,33.362
39.042,33.35
38.936,33.338
38.833,33.326
38.733,33.312
38.637,33.298
38.545,33.284
38.456,33.271
38.372,33.259
38.292,33.249
38.217,33.24
38.145,33.232
38.078,33.224
38.013,33.216
37.949,33.207
37.885,33.196
37.821,33.183
37.757,33.168
37.69,33.151
37.622,33.135
37.55,33.119
37.474,33.105
37.391,33.093
37.302,33.084
37.205,33.079
37.099,33.079
36.986,33.085
36.864,33.097
36.734,33.117
36.598,33.145
36.456,33.181
36.311,33.228
36.165,33.284
36.021,33.35
35.881,33.427
35.748,33.515
35.624,33.612
35.51,33.718
35.408,33.832
35.322,33.951
35.251,34.074
35.196,34.199
35.159,34.324
35.136,34.448
35.128,34.569
35.132,34.687
35.146,34.799
35.169,34.904
35.199,35.002
35.233,35.09
35.269,35.17
35.307,35.238
35.344,35.296
35.378,35.342
35.408,35.377
35.434,35.402
35.453,35.415
35.465,35.418
35.47,35.411
35.466,35.397
35.454,35.375
35.433,35.347
35.404,35.314
35.369,35.279
35.329,35.242
35.284,35.204
35.235,35.168
35.18,35.134
35.12,35.103
35.054,35.075
34.983,35.051
34.908,35.032
34.827,35.017
34.744,35.007
34.656,35.001
34.565,34.997
34.472,34.994
34.375,34.991
34.276,34.986
34.175,34.979
34.073,34.968
33.97,34.953
33.868,34.933
33.766,34.91
33.667,34.884
33.568,34.856
33.471,34.828
33.374,34.804
33.279,34.782
33.187,34.764
33.097,34.749
33.012,34.735
32.93,34.722
32.853,34.708
32.78,34.693
32.709,34.677
32.642,34.659
32.576,34.64
32.512,34.62
32.45,34.6
32.39,34.58
32.334,34.562
32.281,34.548
32.233,34.536
32.187,34.527
32.146,34.521
32.108,34.519
32.073,34.52
32.041,34.525
32.013,34.533
31.988,34.544
31.966,34.558
31.947,34.574
31.929,34.591
31.912,34.607
31.896,34.623
31.88,34.635
31.865,34.644
31.85,34.649
31.834,34.65
31.818,34.645
31.801,34.636
31.783,34.623
31.763,34.604
31.743,34.583
31.723,34.557
31.703,34.529
31.683,34.498
31.662,34.466
31.641,34.434
31.618,34.404
31.595,34.376
31.57,34.35
31.546,34.327
31.522,34.308
31.499,34.292
31.478,34.279
31.459,34.269
31.444,34.261
31.434,34.254
31.433,34.246
31.441,34.237
31.461,34.226
31.496,34.213
31.553,34.197
31.637,34.179
31.756,34.159
31.918,34.139
32.127,34.12
32.39,34.103
32.708,34.088
33.082,34.075
33.508,34.062
33.982,34.05
34.495,34.039
35.039,34.028
35.603,34.017
36.173,34.003
36.74,33.988
37.291,33.971
37.816,33.953
38.306,33.934
38.754,33.914
39.155,33.895
39.506,33.876
39.804,33.86
40.049,33.845
40.242,33.832
40.386,33.821
40.484,33.811
40.539,33.803
40.557,33.796
40.541,33.789
40.497,33.782
40.43,33.775
40.344,33.768
40.245,33.762
40.137,33.757
40.024,33.753
39.91,33.749
39.798,33.746
39.69,33.743
39.588,33.741
39.492,33.737
39.402,33.732
39.317,33.728
39.238,33.723
39.163,33.718
39.091,33.712
39.021,33.706
38.953,33.699
38.888,33.692
38.825,33.687
38.765,33.682
38.707,33.679
38.652,33.675
38.599,33.672
38.547,33.669
38.495,33.664
38.44,33.658
38.382,33.65
38.319,33.642
38.249,33.633
38.171,33.625
38.082,33.618
37.983,33.611
37.875,33.606
37.756,33.601
37.628,33.597
37.493,33.592
37.352,33.587
37.205,33.581
37.055,33.573
36.902,33.564
36.748,33.554
36.597,33.543
36.452,33.53
36.313,33.516
36.184,33.502
36.066,33.488
35.962,33.474
35.872,33.462
35.796,33.452
35.736,33.443
35.69,33.435
35.659,33.428
35.641,33.422
35.632,33.418
35.632,33.413
35.638,33.409
35.648,33.406
35.662,33.402
35.677,33.4
35.693,33.397
35.708,33.396
35.721,33.396
35.732,33.398
35.741,33.402
35.745,33.41
35.746,33.423
35.742,33.442
35.732,33.47
35.715,33.507
35.693,33.556
35.663,33.617
35.627,33.691
35.582,33.777
35.53,33.876
35.471,33.987
35.404,34.108
35.332,34.237
35.255,34.372
35.174,34.51
35.089,34.647
35.001,34.781
34.91,34.911
34.818,35.033
34.724,35.146
34.63,35.247
34.536,35.338
34.443,35.417
34.349,35.484
34.257,35.539
34.165,35.583
34.075,35.617
33.988,35.643
33.903,35.66
33.821,35.671
33.741,35.676
33.662,35.676
33.583,35.672
33.504,35.665
33.425,35.656
33.346,35.647
33.269,35.641
33.193,35.639
33.119,35.64
33.047,35.643
32.976,35.645
32.908,35.645
32.84,35.642
32.775,35.635
32.712,35.623
32.65,35.608
32.592,35.59
32.537,35.569
32.486,35.548
32.438,35.526
32.394,35.504
32.352,35.484
32.311,35.465
32.271,35.448
32.23,35.433
32.19,35.419
32.152,35.406
32.117,35.394
32.085,35.382
32.057,35.369
32.034,35.354
32.016,35.336
32.002,35.315
31.992,35.29
31.985,35.263
31.98,35.233
31.976,35.202
31.973,35.17
31.97,35.139
31.967,35.107
31.963,35.077
31.958,35.048
31.951,35.02
31.943,34.994
31.933,34.97
31.92,34.947
31.905,34.925
31.887,34.906
31.866,34.888
31.843,34.873
31.817,34.861
31.79,34.851
31.761,34.843
31.731,34.838
31.699,34.836
31.667,34.834
31.635,34.834
31.604,34.834
31.574,34.835
31.548,34.836
31.527,34.836
31.513,34.838
31.509,34.84
31.517,34.843
31.543,34.847
31.592,34.85
31.672,34.853
31.79,34.854
31.952,34.853
32.168,34.85
32.443,34.844
32.78,34.835
33.178,34.822
33.634,34.806
34.142,34.788
34.691,34.767
35.27,34.746
35.866,34.723
36.465,34.7
37.056,34.679
37.627,34.659
38.165,34.641
38.661,34.625
39.108,34.611
39.5,34.599
39.835,34.587
40.111,34.575
40.329,34.563
40.492,34.55
40.603,34.536
40.667,34.522
40.691,34.507
40.68,34.492
40.64,34.475
40.576,34.458
40.495,34.439
40.4,34.42
40.294,34.4
40.181,34.38
40.064,34.361
39.946,34.342
39.834,34.325
39.733,34.309
39.643,34.295
39.565,34.284
39.496,34.274
39.432,34.265
39.371,34.258
39.311,34.252
39.251,34.245
39.19,34.239
39.128,34.232
39.064,34.224
38.999,34.215
38.934,34.206
38.868,34.195
38.802,34.184
38.735,34.173
38.666,34.162
38.597,34.153
38.525,34.145
38.452,34.138
38.377,34.132
38.298,34.128
38.216,34.125
38.13,34.123
38.04,34.123
37.946,34.122
37.849,34.12
37.747,34.117
37.642,34.112
37.534,34.104
37.424,34.095
37.31,34.084
37.196,34.072
37.081,34.06
36.966,34.047
36.853,34.034
36.744,34.023
36.639,34.014
36.542,34.005
36.454,33.997
36.376,33.992
36.308,33.987
36.25,33.984
36.201,33.982
36.16,33.98
36.126,33.978
36.097,33.976
36.072,33.975
36.052,33.973
36.036,33.971
36.024,33.968
36.015,33.964
36.009,33.958
36.006,33.953
36.003,33.947
36.001,33.941
35.998,33.935
35.993,33.93
35.986,33.924
35.975,33.918
35.96,33.912
35.939,33.904
35.912,33.896
35.88,33.887
35.843,33.877
35.801,33.866
35.753,33.853
35.702,33.838
35.646,33.823
35.586,33.806
35.521,33.788
35.454,33.77
35.383,33.75
35.311,33.73
35.235,33.709
35.158,33.688
35.078,33.668
34.998,33.649
34.916,33.632
34.834,33.617
34.752,33.606
34.67,33.598
34.589,33.594
34.51,33.593
34.432,33.596
34.355,33.601
34.279,33.609
34.205,33.618
34.131,33.628
34.058,33.638
33.984,33.648
33.911,33.66
33.837,33.68
33.765,33.707
33.694,33.742
33.624,33.78
33.554,33.821
33.485,33.863
33.417,33.903
33.35,33.941
33.284,33.976
33.22,34.008
33.159,34.039
33.099,34.071
33.042,34.107
32.987,34.149
32.936,34.198
32.888,34.257
32.844,34.326
32.803,34.408
32.766,34.502
32.731,34.606
32.699,34.719
32.67,34.841
32.642,34.967
32.618,35.097
32.596,35.225
32.576,35.351
32.559,35.47
32.544,35.582
32.53,35.684
32.517,35.775
32.506,35.854
32.495,35.919
32.485,35.971
32.475,36.01
32.466,36.035
32.456,36.047
32.447,36.046
32.438,36.033
32.429,36.009
32.419,35.978
32.408,35.941
32.397,35.901
32.385,35.859
32.373,35.819
32.361,35.781
32.349,35.746
32.335,35.716
32.32,35.69
32.302,35.67
32.281,35.654
32.257,35.643
32.23,35.635
32.2,35.631
32.166,35.628
32.131,35.627
32.093,35.625
32.053,35.621
32.012,35.616
31.97,35.609
31.927,35.6
31.883,35.587
31.84,35.57
31.797,35.549
31.756,35.524
31.718,35.498
31.685,35.471
31.659,35.446
31.645,35.422
31.647,35.4
31.672,35.382
31.727,35.368
31.819,35.356
31.953,35.347
32.137,35.339
32.373,35.331
32.665,35.323
33.01,35.315
33.406,35.304
33.845,35.293
34.321,35.28
34.822,35.267
35.337,35.254
35.856,35.242
36.366,35.23
36.857,35.219
37.319,35.209
37.744,35.2
38.124,35.193
38.456,35.187
38.737,35.182
38.966,35.178
39.147,35.175
39.279,35.172
39.367,35.171
39.415,35.169
39.428,35.167
39.41,35.165
39.367,35.161
39.304,35.155
39.225,35.147
39.134,35.138
39.033,35.127
38.925,35.113
38.813,35.098
38.7,35.081
38.587,35.063
38.476,35.044
38.37,35.025
38.268,35.006
38.172,34.987
38.083,34.967
38.001,34.947
37.927,34.926
37.86,34.905
37.801,34.884
37.749,34.864
37.704,34.845
37.665,34.827
37.629,34.811
37.595,34.795
37.562,34.779
37.528,34.762
37.491,34.744
37.451,34.725
37.405,34.703
37.354,34.679
37.298,34.655
37.236,34.63
37.168,34.606
37.094,34.584
37.015,34.563
36.93,34.544
36.839,34.526
36.743,34.511
36.641,34.498
36.535,34.486
36.426,34.476
36.315,34.468
36.204,34.46
36.096,34.452
35.994,34.443
35.898,34.432
35.811,34.421
35.732,34.408
35.663,34.394
35.603,34.381
35.551,34.367
35.507,34.354
35.472,34.341
35.445,34.329
35.425,34.318
35.411,34.307
35.402,34.296
35.396,34.286
35.394,34.277
35.394,34.267
35.396,34.257
35.4,34.248
35.406,34.238
35.411,34.228
35.415,34.216
35.417,34.204
35.415,34.191
35.408,34.178
35.397,34.164
35.38,34.15
35.358,34.134
35.331,34.118
35.299,34.102
35.263,34.086
35.223,34.071
35.179,34.058
35.131,34.047
35.081,34.038
35.028,34.032
34.973,34.028
34.915,34.025
34.856,34.023
34.795,34.02
34.733,34.017
34.672,34.013
34.612,34.009
34.553,34.004
34.495,33.999
34.438,33.996
34.382,33.993
34.326,33.993
34.27,33.993
34.213,33.993
34.155,33.995
34.098,33.997
34.04,34
33.981,34
33.922,33.999
33.862,33.996
33.801,33.99
33.739,33.982
33.676,33.972
33.614,33.96
33.553,33.946
33.493,33.93
33.436,33.913
33.381,33.895
33.328,33.877
33.278,33.858
33.23,33.84
33.184,33.823
33.142,33.806
33.102,33.79
33.064,33.777
33.028,33.764
32.994,33.753
32.961,33.744
32.93,33.735
32.9,33.727
32.874,33.721
32.849,33.715
32.828,33.708
32.808,33.702
32.789,33.695
32.772,33.688
32.756,33.682
32.742,33.676
32.729,33.671
32.718,33.667
32.709,33.666
32.702,33.669
32.698,33.675
32.695,33.688
32.694,33.706
32.692,33.732
32.69,33.766
32.688,33.808
32.685,33.861
32.682,33.924
32.678,33.998
32.675,34.083
32.671,34.178
32.665,34.283
32.657,34.397
32.647,34.518
32.633,34.644
32.615,34.776
32.593,34.91
32.569,35.046
32.542,35.179
32.514,35.308
32.485,35.432
32.456,35.548
32.426,35.654
32.396,35.751
32.366,35.836
32.336,35.91
32.307,35.973
32.28,36.024
32.254,36.063
32.23,36.089
32.207,36.103
32.184,36.106
32.164,36.098
32.146,36.082
32.132,36.058
32.123,36.028
32.12,35.994
32.126,35.957
32.145,35.918
32.179,35.88
32.235,35.842
32.317,35.804
32.43,35.769
32.578,35.735
32.764,35.705
32.99,35.677
33.254,35.652
33.554,35.631
33.883,35.612
34.234,35.594
34.601,35.578
34.974,35.564
35.348,35.55
35.713,35.536
36.063,35.522
36.391,35.507
36.691,35.491
36.959,35.476
37.193,35.46
37.389,35.443
37.548,35.427
37.669,35.411
37.754,35.396
37.805,35.381
37.824,35.367
37.816,35.352
37.784,35.338
37.73,35.322
37.658,35.307
37.572,35.291
37.474,35.275
37.369,35.259
37.261,35.242
37.151,35.226
37.043,35.212
36.94,35.197
36.843,35.184
36.754,35.172
36.675,35.16
36.604,35.15
36.542,35.141
36.489,35.134
36.442,35.13
36.401,35.129
36.365,35.13
36.332,35.133
36.301,35.138
36.272,35.145
36.245,35.153
36.219,35.161
36.193,35.169
36.164,35.178
36.132,35.185
36.094,35.191
36.05,35.195
35.997,35.197
35.936,35.198
35.866,35.198
35.786,35.196
35.7,35.193
35.607,35.19
35.511,35.185
35.413,35.181
35.315,35.176
35.22,35.171
35.129,35.166
35.045,35.161
34.968,35.156
34.899,35.151
34.837,35.146
34.785,35.141
34.741,35.136
34.707,35.129
34.682,35.12
34.667,35.109
34.662,35.095
34.664,35.078
34.674,35.058
34.69,35.035
34.71,35.009
34.734,34.981
34.758,34.953
34.781,34.924
34.802,34.896
34.82,34.869
34.834,34.843
34.843,34.819
34.847,34.796
34.847,34.776
34.842,34.758
34.833,34.742
34.819,34.728
34.8,34.715
34.776,34.703
34.747,34.692
34.713,34.682
34.674,34.673
34.631,34.665
34.587,34.658
34.541,34.652
34.496,34.647
34.45,34.642
34.405,34.638
34.358,34.635
34.31,34.635
34.261,34.637
34.21,34.641
34.158,34.647
34.105,34.656
34.052,34.665
33.999,34.675
33.946,34.686
33.894,34.695
33.842,34.703
33.79,34.708
33.74,34.71
33.689,34.708
33.637,34.702
33.586,34.692
33.534,34.679
33.482,34.663
33.428,34.648
33.375,34.632
33.321,34.619
33.27,34.607
33.22,34.596
33.173,34.588
33.129,34.58
33.087,34.573
33.046,34.567
33.007,34.56
32.969,34.552
32.933,34.544
32.899,34.536
32.866,34.527
32.835,34.517
32.805,34.506
32.776,34.496
32.749,34.486
32.724,34.477
32.701,34.47
32.679,34.465
32.66,34.462
32.641,34.461
32.624,34.462
32.609,34.466
32.595,34.47
32.584,34.475
32.574,34.481
32.567,34.487
32.56,34.492
32.555,34.495
32.55,34.497
32.545,34.495
32.54,34.49
32.534,34.482
32.528,34.472
32.521,34.461
32.514,34.45
32.507,34.44
32.5,34.435
32.492,34.435
32.484,34.443
32.476,34.461
32.467,34.489
32.456,34.528
32.444,34.579
32.431,34.643
32.417,34.72
32.401,34.809
32.383,34.911
32.365,35.023
32.346,35.145
32.325,35.275
32.304,35.411
32.281,35.549
32.257,35.687
32.233,35.823
32.21,35.955
32.188,36.081
32.166,36.199
32.144,36.309
32.123,36.408
32.101,36.496
32.078,36.572
32.055,36.637
32.031,36.691
32.007,36.734
31.984,36.766
31.963,36.789
31.946,36.803
31.936,36.808
31.934,36.806
31.946,36.796
31.974,36.781
32.022,36.761
32.095,36.737
32.197,36.711
32.332,36.682
32.502,36.653
32.708,36.624
32.949,36.596
33.223,36.568
33.525,36.541
33.85,36.516
34.191,36.492
34.541,36.47
34.893,36.451
35.238,36.435
35.571,36.422
35.885,36.413
36.174,36.406
36.435,36.4
36.663,36.395
36.858,36.389
37.017,36.382
37.141,36.374
37.229,36.365
37.283,36.354
37.305,36.341
37.298,36.327
37.266,36.31
37.213,36.291
37.142,36.27
37.059,36.247
36.965,36.223
36.865,36.199
36.762,36.175
36.659,36.152
36.558,36.13
36.461,36.11
36.37,36.092
36.287,36.077
36.211,36.064
36.145,36.056
36.088,36.053
36.039,36.056
35.999,36.063
35.965,36.071
35.937,36.08
35.913,36.087
35.89,36.094
35.869,36.098
35.849,36.101
35.828,36.101
35.807,36.1
35.786,36.096
35.763,36.091
35.738,36.083
35.711,36.073
35.681,36.061
35.645,36.047
35.605,36.032
35.557,36.018
35.503,36.005
35.442,35.994
35.375,35.984
35.303,35.976
35.229,35.971
35.154,35.968
35.08,35.965
35.007,35.963
34.937,35.96
34.871,35.956
34.809,35.95
34.752,35.942
34.701,35.932
34.656,35.92
34.618,35.905
34.587,35.888
34.562,35.87
34.541,35.849
34.525,35.826
34.512,35.803
34.502,35.779
34.496,35.755
34.493,35.732
34.493,35.709
34.494,35.687
34.497,35.666
34.5,35.647
34.503,35.627
34.506,35.608
34.51,35.589
34.514,35.569
34.518,35.549
34.523,35.527
34.527,35.503
34.529,35.478
34.528,35.45
34.523,35.422
34.514,35.393
34.501,35.364
34.483,35.336
34.462,35.309
34.437,35.285
34.41,35.263
34.381,35.242
34.35,35.223
34.317,35.204
34.282,35.186
34.244,35.169
34.205,35.152
34.163,35.136
34.119,35.121
34.072,35.108
34.024,35.097
33.976,35.087
33.928,35.077
33.88,35.067
33.831,35.056
33.782,35.045
33.732,35.033
33.681,35.022
33.628,35.011
33.574,35.001
33.519,34.992
33.466,34.982
33.413,34.972
33.363,34.963
33.316,34.955
33.273,34.947
33.232,34.941
33.195,34.936
33.16,34.932
33.127,34.929
33.095,34.926
33.063,34.924
33.032,34.922
33.002,34.919
32.974,34.915
32.948,34.908
32.924,34.899
32.902,34.887
32.884,34.873
32.868,34.858
32.855,34.841
32.843,34.824
32.831,34.807
32.819,34.79
32.807,34.774
32.794,34.759
32.781,34.745
32.769,34.731
32.758,34.718
32.749,34.706
32.741,34.694
32.733,34.682
32.726,34.67
32.719,34.658
32.712,34.644
32.704,34.63
32.697,34.614
32.689,34.599
32.68,34.585
32.67,34.572
32.659,34.562
32.645,34.554
32.628,34.55
32.609,34.548
32.589,34.551
32.566,34.556
32.543,34.567
32.519,34.583
32.496,34.607
32.473,34.64
32.451,34.686
32.43,34.746
32.41,34.82
32.393,34.91
32.38,35.015
32.371,35.135
32.367,35.268
32.368,35.412
32.376,35.566
32.392,35.729
32.419,35.897
32.461,36.07
32.52,36.244
32.601,36.417
32.706,36.587
32.839,36.75
32.998,36.905
33.183,37.051
33.392,37.186
33.623,37.309
33.871,37.419
34.133,37.516
34.405,37.6
34.68,37.671
34.956,37.729
35.225,37.775
35.484,37.808
35.729,37.832
35.954,37.847
36.156,37.854
36.333,37.855
36.483,37.85
36.602,37.842
36.693,37.83
36.754,37.816
36.789,37.801
36.798,37.785
36.786,37.769
36.754,37.754
36.705,37.739
36.641,37.726
36.565,37.715
36.479,37.707
36.387,37.701
36.292,37.698
36.196,37.699
36.101,37.702
36.01,37.708
35.924,37.717
35.844,37.728
35.772,37.742
35.707,37.758
35.651,37.773
35.602,37.787
35.56,37.798
35.523,37.807
35.49,37.811
35.461,37.811
35.434,37.807
35.41,37.8
35.387,37.79
35.365,37.777
35.342,37.759
35.318,37.737
35.291,37.71
35.262,37.68
35.231,37.646
35.195,37.61
35.155,37.573
35.112,37.535
35.064,37.496
35.01,37.459
34.952,37.422
34.889,37.387
34.822,37.356
34.752,37.327
34.679,37.301
34.604,37.28
34.531,37.262
34.46,37.25
34.392,37.242
34.329,37.238
34.271,37.237
34.22,37.239
34.176,37.242
34.139,37.245
34.108,37.25
34.085,37.254
34.069,37.257
34.059,37.258
34.054,37.257
34.053,37.253
34.055,37.247
34.06,37.237
34.067,37.224
34.076,37.208
34.086,37.189
34.097,37.167
34.108,37.145
34.12,37.122
34.13,37.099
34.14,37.076
34.148,37.053
34.154,37.031
34.157,37.009
34.157,36.987
34.155,36.966
34.149,36.943
34.142,36.92
34.134,36.897
34.124,36.874
34.111,36.849
34.095,36.824
34.077,36.796
34.055,36.766
34.031,36.733
34.005,36.697
33.978,36.658
33.949,36.617
33.92,36.574
33.889,36.529
33.856,36.483
33.823,36.437
33.788,36.392
33.753,36.349
33.717,36.307
33.682,36.268
33.648,36.23
33.614,36.195
33.581,36.16
33.549,36.128
33.517,36.097
33.485,36.067
33.452,36.04
33.418,36.013
33.384,35.988
33.349,35.965
33.312,35.941
33.276,35.917
33.239,35.894
33.201,35.87
33.164,35.846
33.128,35.821
33.094,35.795
33.06,35.77
33.028,35.746
32.999,35.723
32.971,35.7
32.946,35.679
32.923,35.659
32.901,35.641
32.882,35.626
32.864,35.612
32.848,35.601
32.834,35.591
32.821,35.582
32.809,35.576
32.798,35.57
32.787,35.565
32.777,35.56
32.767,35.554
32.758,35.548
32.75,35.54
32.742,35.53
32.735,35.518
32.728,35.504
32.722,35.487
32.714,35.468
32.705,35.448
32.694,35.427
32.68,35.406
32.665,35.386
32.648,35.366
32.63,35.348
32.612,35.331
32.596,35.315
32.58,35.298
32.565,35.281
32.551,35.263
32.537,35.243
32.523,35.221
32.509,35.197
32.495,35.171
32.482,35.144
32.469,35.116
32.458,35.087
32.449,35.057
32.441,35.025
32.436,34.992
32.433,34.958
32.434,34.924
32.44,34.891
32.451,34.859
32.472,34.83
32.503,34.804
32.549,34.782
32.614,34.763
32.701,34.748
32.812,34.737
32.949,34.73
33.112,34.725
33.301,34.723
33.514,34.723
33.748,34.726
33.997,34.731
34.258,34.738
34.525,34.75
34.793,34.767
35.059,34.793
35.316,34.831
35.562,34.883
35.794,34.951
36.007,35.036
36.198,35.139
36.362,35.26
36.498,35.398
36.604,35.553
36.681,35.721
36.728,35.902
36.75,36.094
36.746,36.294
36.723,36.498
36.682,36.705
36.627,36.91
36.563,37.11
36.492,37.302
36.416,37.484
36.337,37.654
36.257,37.81
36.176,37.951
36.096,38.077
36.017,38.188
35.94,38.286
35.867,38.37
35.797,38.441
35.731,38.501
35.67,38.549
35.614,38.587
35.563,38.616
35.517,38.637
35.475,38.651
35.437,38.659
35.402,38.663
35.37,38.664
35.339,38.661
35.308,38.657
35.277,38.652
35.246,38.648
35.213,38.644
35.18,38.64
35.144,38.637
35.107,38.635
35.067,38.634
35.024,38.633
34.978,38.632
34.928,38.631
34.874,38.629
34.818,38.627
34.759,38.624
34.699,38.621
34.64,38.616
34.581,38.61
34.525,38.601
34.473,38.59
34.426,38.575
34.385,38.556
34.35,38.532
34.323,38.504
34.302,38.471
34.287,38.433
34.276,38.391
34.269,38.345
34.267,38.297
34.268,38.248
34.273,38.198
34.282,38.148
34.293,38.101
34.306,38.057
34.322,38.017
34.338,37.983
34.354,37.954
34.37,37.931
34.385,37.914
34.398,37.903
34.408,37.898
34.416,37.898
34.421,37.902
34.423,37.908
34.421,37.916
34.416,37.924
34.408,37.933
34.398,37.941
34.383,37.947
34.365,37.951
34.343,37.953
34.319,37.951
34.292,37.945
34.265,37.935
34.236,37.921
34.205,37.902
34.173,37.88
34.139,37.854
34.103,37.825
34.065,37.795
34.025,37.764
33.985,37.732
33.945,37.699
33.906,37.666
33.868,37.634
33.832,37.601
33.796,37.567
33.762,37.533
33.729,37.496
33.696,37.459
33.665,37.419
33.635,37.377
33.606,37.334
33.578,37.289
33.552,37.242
33.526,37.193
33.502,37.141
33.479,37.087
33.456,37.031
33.435,36.971
33.413,36.909
33.393,36.847
33.371,36.784
33.349,36.722
33.326,36.662
33.301,36.606
33.275,36.553
33.248,36.506
33.22,36.462
33.192,36.423
33.163,36.386
33.133,36.351
33.105,36.317
33.077,36.282
33.051,36.247
33.027,36.211
33.005,36.174
32.985,36.134
32.967,36.093
32.951,36.048
32.936,36.001
32.923,35.951
32.912,35.899
32.902,35.845
32.893,35.792
32.886,35.739
32.881,35.687
32.877,35.638
32.875,35.59
32.874,35.545
32.874,35.502
32.874,35.462
32.873,35.424
32.871,35.389
32.869,35.356
32.865,35.324
32.862,35.292
32.857,35.26
32.851,35.229
32.843,35.198
32.835,35.167
32.826,35.135
32.817,35.103
32.806,35.071
32.795,35.039
32.783,35.007
32.771,34.974
32.76,34.941
32.75,34.908
32.742,34.875
32.736,34.843
32.732,34.811
32.729,34.781
32.726,34.753
32.724,34.727
32.723,34.701
32.72,34.675
32.717,34.649
32.713,34.622
32.707,34.598
32.701,34.574
32.694,34.553
32.687,34.532
32.679,34.512
32.672,34.491
32.663,34.47
32.654,34.447
32.644,34.422
32.633,34.395
32.62,34.365
32.607,34.333
32.594,34.3
32.58,34.265
32.564,34.23
32.548,34.195
32.532,34.16
32.515,34.127
32.497,34.095
32.478,34.066
32.458,34.043
32.435,34.025
32.41,34.013
32.383,34.008
32.353,34.01
32.323,34.02
32.294,34.039
32.266,34.068
32.241,34.109
32.217,34.163
32.196,34.234
32.176,34.321
32.159,34.426
32.146,34.549
32.14,34.689
32.144,34.847
32.163,35.02
32.202,35.208
32.265,35.407
32.357,35.615
32.479,35.829
32.636,36.045
32.826,36.261
33.05,36.471
33.305,36.673
33.59,36.864
33.899,37.042
34.229,37.207
34.572,37.358
34.922,37.495
35.273,37.617
35.618,37.722
35.95,37.812
36.262,37.885
36.55,37.944
36.807,37.989
37.031,38.021
37.218,38.042
37.368,38.054
37.482,38.059
37.559,38.059
37.602,38.053
37.614,38.042
37.598,38.028
37.557,38.012
37.498,37.995
37.422,37.977
37.334,37.961
37.237,37.946
37.134,37.933
37.027,37.922
36.92,37.914
36.814,37.908
36.711,37.904
36.611,37.901
36.515,37.897
36.424,37.893
36.337,37.888
36.257,37.881
36.182,37.873
36.115,37.862
36.055,37.847
36.004,37.829
35.96,37.807
35.923,37.779
35.893,37.748
35.867,37.712
35.844,37.672
35.823,37.627
35.801,37.579
35.778,37.529
35.751,37.479
35.721,37.43
35.687,37.384
35.651,37.341
35.612,37.302
35.57,37.267
35.526,37.236
35.479,37.209
35.429,37.187
35.376,37.169
35.322,37.155
35.266,37.143
35.21,37.134
35.154,37.126
35.1,37.118
35.049,37.111
35.002,37.102
34.961,37.092
34.926,37.081
34.898,37.068
34.877,37.054
34.863,37.039
34.854,37.022
34.851,37.005
34.853,36.988
34.859,36.97
34.869,36.952
34.881,36.934
34.895,36.916
34.909,36.899
34.923,36.881
34.936,36.864
34.946,36.846
34.956,36.826
34.963,36.805
34.968,36.782
34.971,36.757
34.971,36.73
34.966,36.701
34.956,36.668
34.942,36.632
34.922,36.592
34.897,36.55
34.868,36.505
34.838,36.459
34.807,36.412
34.775,36.365
34.743,36.319
34.711,36.274
34.679,36.231
34.647,36.19
34.615,36.15
34.583,36.111
34.552,36.072
34.522,36.034
34.493,35.997
34.465,35.961
34.436,35.926
34.405,35.893
34.371,35.86
34.335,35.827
34.297,35.795
34.257,35.763
34.217,35.73
34.177,35.695
34.138,35.659
34.1,35.622
34.064,35.582
34.029,35.542
33.996,35.499
33.964,35.455
33.932,35.411
33.901,35.367
33.869,35.324
33.839,35.282
33.81,35.242
33.781,35.202
33.752,35.165
33.723,35.129
33.694,35.095
33.664,35.064
33.633,35.035
33.603,35.008
33.574,34.984
33.546,34.962
33.52,34.94
33.495,34.919
33.472,34.897
33.452,34.876
33.433,34.854
33.417,34.832
33.403,34.809
33.391,34.787
33.381,34.765
33.374,34.744
33.367,34.723
33.361,34.704
33.356,34.685
33.351,34.666
33.345,34.648
33.339,34.631
33.333,34.615
33.326,34.599
33.318,34.584
33.308,34.567
33.297,34.55
33.284,34.531
33.269,34.511
33.254,34.489
33.24,34.466
33.226,34.443
33.212,34.419
33.2,34.396
33.189,34.373
33.18,34.351
33.172,34.33
33.165,34.31
33.159,34.293
33.155,34.28
33.151,34.272
33.148,34.273
33.145,34.283
33.144,34.304
33.143,34.339
33.144,34.389
33.145,34.454
33.147,34.537
33.148,34.637
33.149,34.755
33.148,34.89
33.146,35.041
33.143,35.206
33.138,35.384
33.132,35.574
33.124,35.773
33.113,35.98
33.1,36.192
33.084,36.407
33.066,36.621
33.047,36.831
33.025,37.035
33.003,37.229
32.979,37.413
32.954,37.584
32.929,37.74
32.904,37.88
32.878,38.003
32.853,38.111
32.829,38.202
32.805,38.278
32.782,38.338
32.76,38.385
32.739,38.418
32.719,38.439
32.699,38.45
32.678,38.451
32.657,38.444
32.636,38.431
32.615,38.413
32.592,38.392
32.57,38.369
32.547,38.346
32.525,38.324
32.502,38.304
32.48,38.286
32.459,38.271
32.441,38.26
32.426,38.253
32.417,38.247
32.415,38.244
32.425,38.241
32.449,38.237
32.491,38.232
32.554,38.224
32.643,38.213
32.76,38.197
32.909,38.174
33.091,38.146
33.307,38.111
33.554,38.07
33.83,38.023
34.131,37.972
34.45,37.916
34.781,37.858
35.116,37.797
35.449,37.735
35.772,37.675
36.08,37.617
36.365,37.563
36.625,37.514
36.854,37.471
37.051,37.434
37.216,37.403
37.349,37.377
37.45,37.357
37.52,37.34
37.56,37.326
37.574,37.314
37.563,37.304
37.529,37.295
37.475,37.286
37.404,37.277
37.318,37.267
37.222,37.254
37.117,37.24
37.009,37.222
36.901,37.202
36.795,37.179
36.693,37.152
36.598,37.123
36.508,37.092
36.425,37.06
36.349,37.026
36.28,36.992
36.216,36.957
36.159,36.923
36.106,36.889
36.058,36.854
36.014,36.82
35.973,36.785
35.935,36.751
35.897,36.717
35.86,36.683
35.822,36.648
35.783,36.614
35.744,36.578
35.706,36.541
35.669,36.503
35.633,36.463
35.597,36.415
35.561,36.36
35.525,36.297
35.488,36.229
35.449,36.159
35.409,36.088
35.368,36.021
35.328,35.958
35.29,35.903
35.254,35.855
35.222,35.815
35.194,35.782
35.168,35.755
35.147,35.733
35.129,35.714
35.113,35.698
35.1,35.683
35.089,35.667
35.08,35.65
35.073,35.63
35.069,35.607
35.068,35.581
35.071,35.55
35.078,35.516
35.087,35.479
35.098,35.437
35.111,35.393
35.123,35.346
35.136,35.298
35.147,35.249
35.158,35.199
35.167,35.15
35.174,35.102
35.179,35.057
35.182,35.015
35.183,34.976
35.18,34.939
35.175,34.905
35.168,34.873
35.16,34.843
35.149,34.813
35.137,34.784
35.123,34.754
35.106,34.726
35.087,34.697
35.065,34.67
35.04,34.642
35.012,34.615
34.983,34.588
34.951,34.562
34.919,34.536
34.886,34.511
34.852,34.486
34.818,34.461
34.784,34.434
34.749,34.406
34.712,34.377
34.673,34.347
34.634,34.316
34.593,34.284
34.551,34.251
34.509,34.219
34.465,34.187
34.422,34.153
34.379,34.117
34.335,34.078
34.291,34.037
34.247,33.994
34.203,33.95
34.161,33.907
34.12,33.865
34.082,33.826
34.046,33.79
34.014,33.756
33.984,33.725
33.956,33.696
33.93,33.67
33.906,33.646
33.883,33.625
33.862,33.607
33.842,33.591
33.823,33.579
33.805,33.571
33.789,33.569
33.775,33.575
33.763,33.593
33.753,33.625
33.744,33.674
33.737,33.743
33.731,33.832
33.725,33.944
33.719,34.077
33.713,34.231
33.706,34.403
33.699,34.592
33.691,34.795
33.682,35.011
33.672,35.235
33.661,35.466
33.649,35.699
33.637,35.932
33.624,36.163
33.612,36.388
33.6,36.605
33.589,36.812
33.578,37.006
33.569,37.188
33.56,37.356
33.551,37.508
33.543,37.643
33.536,37.761
33.53,37.864
33.526,37.951
33.524,38.023
33.524,38.082
33.524,38.129
33.523,38.165
33.522,38.192
33.518,38.211
33.514,38.223
33.507,38.229
33.499,38.231
33.489,38.23
33.478,38.224
33.465,38.216
33.451,38.206
33.435,38.193
33.419,38.177
33.402,38.159
33.384,38.139
33.367,38.117
33.349,38.093
33.332,38.068
33.314,38.044
33.295,38.019
33.277,37.995
33.257,37.972
33.237,37.95
33.217,37.928
33.195,37.906
33.172,37.884
33.149,37.86
33.126,37.835
33.103,37.808
33.081,37.779
33.059,37.747
33.038,37.71
33.019,37.67
33.002,37.624
32.99,37.575
32.984,37.522
32.989,37.465
33.008,37.404
33.045,37.341
33.101,37.276
33.178,37.209
33.279,37.142
33.407,37.076
33.562,37.012
33.746,36.95
33.957,36.892
34.194,36.837
34.455,36.787
34.737,36.742
35.034,36.702
35.342,36.666
35.653,36.635
35.964,36.609
36.266,36.586
36.556,36.568
36.828,36.553
37.077,36.541
37.299,36.53
37.493,36.52
37.657,36.51
37.791,36.499
37.894,36.485
37.968,36.47
38.016,36.452
38.038,36.432
38.036,36.408
38.013,36.381
37.973,36.35
37.916,36.314
37.847,36.273
37.767,36.228
37.679,36.18
37.584,36.128
37.486,36.073
37.385,36.016
37.284,35.958
37.185,35.901
37.089,35.843
36.998,35.787
36.914,35.731
36.836,35.676
36.767,35.624
36.706,35.575
36.654,35.528
36.609,35.482
36.569,35.435
36.534,35.387
36.501,35.337
36.471,35.284
36.439,35.23
36.406,35.173
36.372,35.114
36.334,35.055
36.294,34.996
36.252,34.938
36.207,34.881
36.16,34.827
36.112,34.776
36.061,34.728
36.008,34.685
35.952,34.646
35.896,34.611
35.838,34.579
35.78,34.55
35.724,34.525
35.67,34.501
35.62,34.48
35.575,34.458
35.537,34.435
35.505,34.411
35.479,34.385
35.458,34.358
35.443,34.329
35.434,34.299
35.428,34.269
35.426,34.24
35.428,34.213
35.431,34.187
35.438,34.162
35.443,34.139
35.446,34.117
35.445,34.096
35.44,34.076
35.433,34.055
35.426,34.035
35.42,34.013
35.417,33.991
35.419,33.969
35.425,33.946
35.434,33.922
35.446,33.899
35.459,33.878
35.473,33.858
35.487,33.842
35.5,33.828
35.512,33.817
35.523,33.807
35.533,33.797
35.538,33.788
35.539,33.777
35.534,33.765
35.522,33.751
35.504,33.732
35.479,33.706
35.448,33.675
35.412,33.638
35.37,33.598
35.326,33.557
35.279,33.517
35.232,33.481
35.185,33.451
35.139,33.428
35.093,33.412
35.048,33.402
35.002,33.399
34.955,33.401
34.907,33.406
34.858,33.416
34.808,33.428
34.758,33.442
34.708,33.46
34.658,33.481
34.607,33.505
34.556,33.534
34.506,33.57
34.456,33.616
34.408,33.673
34.361,33.744
34.315,33.831
34.27,33.934
34.226,34.055
34.184,34.194
34.144,34.349
34.105,34.52
34.067,34.705
34.03,34.902
33.995,35.11
33.961,35.325
33.929,35.545
33.901,35.765
33.875,35.983
33.852,36.193
33.832,36.396
33.814,36.587
33.798,36.766
33.784,36.932
33.771,37.085
33.76,37.224
33.75,37.349
33.74,37.46
33.732,37.557
33.724,37.639
33.715,37.707
33.705,37.764
33.693,37.809
33.68,37.844
33.665,37.871
33.647,37.891
33.628,37.905
33.608,37.913
33.589,37.917
33.571,37.918
33.554,37.916
33.538,37.911
33.524,37.905
33.512,37.896
33.503,37.887
33.496,37.876
33.492,37.857
33.489,37.831
33.488,37.799
33.487,37.763
33.487,37.725
33.486,37.687
33.483,37.651
33.48,37.618
33.475,37.588
33.468,37.562
33.46,37.537
33.452,37.514
33.444,37.491
33.437,37.468
33.431,37.442
33.425,37.414
33.419,37.382
33.412,37.345
33.406,37.304
33.399,37.259
33.392,37.211
33.385,37.16
33.378,37.108
33.371,37.054
33.364,37.001
33.355,36.949
33.346,36.898
33.336,36.849
33.326,36.804
33.313,36.763
33.299,36.726
33.281,36.694
33.262,36.668
33.24,36.647
33.216,36.632
33.191,36.622
33.163,36.617
33.135,36.616
33.106,36.619
33.077,36.624
33.049,36.631
33.021,36.64
32.993,36.649
32.965,36.658
32.938,36.663
32.91,36.665
32.884,36.664
32.859,36.659
32.836,36.649
32.815,36.635
32.797,36.616
32.782,36.592
32.771,36.565
32.765,36.534
32.767,36.499
32.779,36.462
32.806,36.422
32.851,36.38
32.921,36.337
33.019,36.292
33.15,36.248
33.319,36.204
33.528,36.161
33.778,36.118
34.067,36.075
34.391,36.033
34.745,35.99
35.123,35.946
35.519,35.901
35.923,35.855
36.33,35.81
36.732,35.765
37.122,35.72
37.491,35.674
37.834,35.627
38.144,35.578
38.418,35.528
38.652,35.477
38.844,35.426
38.995,35.375
39.105,35.326
39.177,35.279
39.214,35.235
39.22,35.195
39.201,35.16
39.16,35.128
39.101,35.101
39.028,35.078
38.943,35.059
38.851,35.041
38.753,35.025
38.652,35.01
38.55,34.993
38.449,34.975
38.352,34.955
38.257,34.932
38.167,34.907
38.083,34.879
38.004,34.85
37.929,34.82
37.859,34.789
37.794,34.759
37.732,34.728
37.673,34.698
37.617,34.667
37.564,34.636
37.514,34.603
37.465,34.57
37.418,34.536
37.373,34.5
37.327,34.465
37.281,34.43
37.234,34.395
37.186,34.36
37.136,34.326
37.085,34.293
37.034,34.262
36.982,34.231
36.931,34.201
36.882,34.173
36.833,34.145
36.786,34.118
36.74,34.093
36.693,34.068
36.647,34.045
36.6,34.022
36.553,34.001
36.506,33.982
36.458,33.965
36.412,33.95
36.369,33.939
36.33,33.931
36.296,33.93
36.269,33.935
36.249,33.949
36.235,33.973
36.227,34.009
36.223,34.058
36.223,34.121
36.225,34.2
36.229,34.294
36.233,34.403
36.239,34.524
36.246,34.657
36.253,34.8
36.261,34.951
36.269,35.107
36.278,35.265
36.286,35.425
36.295,35.582
36.303,35.735
36.308,35.882
36.31,36.02
36.308,36.15
36.3,36.269
36.286,36.379
36.267,36.478
36.244,36.568
36.216,36.646
36.184,36.713
36.148,36.769
36.109,36.813
36.067,36.848
36.022,36.872
35.976,36.887
35.929,36.893
35.882,36.891
35.833,36.883
35.783,36.869
35.731,36.85
35.677,36.826
35.622,36.8
35.566,36.771
35.509,36.741
35.453,36.71
35.396,36.678
35.341,36.647
35.287,36.617
35.236,36.589
35.187,36.563
35.14,36.539
35.094,36.516
35.05,36.497
35.005,36.481
34.961,36.466
34.915,36.452
34.868,36.438
34.82,36.423
34.772,36.404
34.725,36.382
34.679,36.355
34.633,36.323
34.59,36.286
34.548,36.244
34.509,36.197
34.472,36.144
34.436,36.087
34.402,36.026
34.369,35.966
34.337,35.906
34.306,35.848
34.276,35.793
34.247,35.741
34.219,35.693
34.192,35.648
34.167,35.607
34.144,35.569
34.123,35.534
34.102,35.501
34.083,35.471
34.063,35.443
34.045,35.416
34.026,35.39
34.009,35.365
33.992,35.34
33.976,35.316
33.961,35.292
33.948,35.268
33.935,35.245
33.923,35.222
33.91,35.199
33.897,35.176
33.884,35.155
33.871,35.134
33.859,35.115
33.847,35.095
33.836,35.076
33.827,35.057
33.819,35.037
33.812,35.015
33.804,34.993
33.795,34.969
33.785,34.943
33.773,34.916
33.76,34.889
33.746,34.86
33.733,34.831
33.72,34.8
33.708,34.767
33.696,34.732
33.685,34.695
33.673,34.656
33.662,34.616
33.65,34.574
33.638,34.531
33.625,34.487
33.611,34.442
33.596,34.397
33.58,34.35
33.564,34.303
33.547,34.254
33.529,34.205
33.51,34.155
33.491,34.105
33.471,34.055
33.449,34.005
33.426,33.957
33.402,33.912
33.377,33.869
33.35,33.83
33.321,33.796
33.291,33.768
33.259,33.746
33.227,33.728
33.194,33.713
33.161,33.698
33.129,33.678
33.098,33.652
33.068,33.619
33.04,33.581
33.013,33.539
32.99,33.496
32.969,33.453
32.953,33.411
32.942,33.372
32.939,33.337
32.949,33.307
32.976,33.281
33.024,33.26
33.098,33.243
33.204,33.229
33.345,33.217
33.525,33.206
33.746,33.195
34.01,33.186
34.314,33.175
34.655,33.164
35.029,33.151
35.427,33.137
35.842,33.122
36.265,33.106
36.688,33.089
37.102,33.071
37.501,33.054
37.875,33.037
38.22,33.02
38.531,33.003
38.804,32.986
39.037,32.969
39.231,32.951
39.386,32.933
39.504,32.913
39.586,32.892
39.637,32.868
39.659,32.842
39.655,32.815
39.629,32.788
39.584,32.762
39.523,32.737
39.45,32.717
39.368,32.701
39.274,32.69
39.169,32.687
39.056,32.693
38.938,32.71
38.818,32.738
38.701,32.779
38.589,32.835
38.485,32.907
38.389,32.993
38.301,33.094
38.219,33.209
38.145,33.337
38.076,33.475
38.013,33.622
37.956,33.776
37.904,33.934
37.856,34.094
37.811,34.255
37.769,34.419
37.728,34.584
37.688,34.748
37.648,34.906
37.606,35.053
37.562,35.187
37.515,35.305
37.464,35.404
37.409,35.484
37.352,35.545
37.291,35.587
37.227,35.61
37.161,35.616
37.095,35.608
37.028,35.589
36.963,35.561
36.9,35.526
36.839,35.487
36.782,35.446
36.729,35.405
36.681,35.366
36.638,35.331
36.601,35.301
36.572,35.275
36.549,35.255
36.532,35.239
36.522,35.228
36.516,35.221
36.515,35.217
36.519,35.214
36.526,35.214
36.538,35.213
36.554,35.213
36.574,35.214
36.597,35.215
36.622,35.215
36.647,35.214
36.67,35.212
36.689,35.206
36.703,35.198
36.71,35.184
36.71,35.168
36.702,35.147
36.688,35.124
36.669,35.097
36.645,35.068
36.619,35.038
36.592,35.005
36.562,34.97
36.53,34.935
36.495,34.898
36.457,34.86
36.414,34.822
36.367,34.784
36.316,34.746
36.262,34.709
36.205,34.674
36.146,34.641
36.086,34.61
36.025,34.583
35.966,34.558
35.907,34.537
35.849,34.52
35.793,34.505
35.739,34.494
35.689,34.484
35.643,34.476
35.602,34.469
35.564,34.461
35.527,34.453
35.488,34.445
35.447,34.436
35.401,34.427
35.351,34.418
35.296,34.408
35.237,34.397
35.173,34.384
35.106,34.37
35.037,34.354
34.966,34.337
34.895,34.318
34.823,34.299
34.752,34.278
34.682,34.255
34.614,34.23
34.551,34.203
34.492,34.173
34.438,34.142
34.389,34.109
34.345,34.074
34.307,34.038
34.272,34.002
34.241,33.966
34.212,33.931
34.184,33.896
34.157,33.863
34.13,33.832
34.102,33.802
34.075,33.775
34.049,33.75
34.024,33.726
34.001,33.703
33.979,33.68
33.959,33.656
33.941,33.631
33.923,33.606
33.905,33.58
33.888,33.553
33.87,33.526
33.853,33.499
33.836,33.474
33.82,33.449
33.804,33.425
33.79,33.404
33.775,33.384
33.761,33.365
33.747,33.347
33.735,33.33
33.723,33.312
33.713,33.294
33.702,33.276
33.692,33.256
33.681,33.235
33.67,33.213
33.66,33.191
33.65,33.169
33.64,33.147
33.63,33.124
33.62,33.102
33.61,33.081
33.599,33.061
33.586,33.043
33.573,33.025
33.559,33.009
33.545,32.994
33.53,32.981
33.514,32.97
33.499,32.96
33.484,32.953
33.47,32.947
33.456,32.945
33.442,32.944
33.427,32.944
33.411,32.943
33.394,32.941
33.374,32.938
33.353,32.931
33.33,32.922
33.306,32.91
33.281,32.895
33.255,32.876
33.229,32.854
33.201,32.83
33.173,32.803
33.143,32.774
33.112,32.744
33.081,32.715
33.049,32.686
33.018,32.659
32.988,32.636
32.959,32.616
32.931,32.601
32.904,32.591
32.88,32.586
32.86,32.586
32.844,32.592
32.837,32.605
32.841,32.627
32.861,32.657
32.901,32.696
32.968,32.746
33.069,32.808
33.209,32.881
33.393,32.966
33.626,33.063
33.907,33.17
34.237,33.286
34.611,33.41
35.024,33.54
35.467,33.674
35.932,33.809
36.41,33.944
36.89,34.078
37.362,34.207
37.816,34.329
38.244,34.444
38.64,34.549
38.998,34.644
39.316,34.729
39.591,34.802
39.823,34.864
40.011,34.915
40.158,34.957
40.265,34.988
40.333,35.011
40.365,35.025
40.365,35.031
40.338,35.031
40.287,35.026
40.218,35.02
40.133,35.015
40.038,35.015
39.936,35.018
39.829,35.023
39.72,35.026
39.61,35.027
39.501,35.023
39.394,35.013
39.29,34.997
39.189,34.977
39.091,34.952
38.996,34.924
38.903,34.897
38.812,34.869
38.724,34.843
38.638,34.82
38.553,34.8
38.471,34.786
38.39,34.775
38.31,34.767
38.231,34.762
38.155,34.759
38.081,34.756
38.009,34.752
37.939,34.748
37.869,34.741
37.799,34.731
37.727,34.718
37.654,34.701
37.579,34.68
37.501,34.654
37.422,34.623
37.343,34.588
37.263,34.549
37.183,34.509
37.103,34.468
37.025,34.428
36.949,34.389
36.876,34.353
36.806,34.32
36.741,34.291
36.682,34.265
36.629,34.241
36.585,34.22
36.549,34.202
36.524,34.187
36.509,34.175
36.505,34.164
36.51,34.154
36.522,34.145
36.541,34.136
36.564,34.127
36.59,34.118
36.616,34.109
36.642,34.1
36.666,34.093
36.689,34.086
36.709,34.081
36.727,34.077
36.742,34.074
36.754,34.072
36.763,34.071
36.768,34.069
36.769,34.066
36.765,34.061
36.755,34.053
36.74,34.043
36.719,34.03
36.692,34.015
36.66,33.999
36.621,33.981
36.578,33.962
36.529,33.942
36.477,33.922
36.421,33.901
36.363,33.881
36.304,33.861
36.244,33.842
36.185,33.824
36.126,33.806
36.069,33.788
36.012,33.77
35.955,33.751
35.897,33.73
35.836,33.708
35.773,33.686
35.707,33.662
35.639,33.638
35.571,33.614
35.503,33.588
35.435,33.561
35.368,33.534
35.303,33.507
35.239,33.48
35.174,33.453
35.11,33.427
35.044,33.402
34.978,33.378
34.911,33.357
34.844,33.338
34.776,33.323
34.709,33.311
34.641,33.302
34.573,33.296
34.505,33.293
34.438,33.29
34.375,33.287
34.317,33.285
34.263,33.282
34.213,33.279
34.168,33.277
34.127,33.276
34.089,33.275
34.055,33.275
34.023,33.276
33.994,33.277
33.967,33.278
33.942,33.278
33.919,33.277
33.896,33.273
33.874,33.268
33.852,33.26
33.83,33.25
33.806,33.238
33.78,33.224
33.754,33.209
33.728,33.193
33.702,33.177
33.678,33.163
33.657,33.15
33.639,33.138
33.624,33.129
33.61,33.122
33.598,33.118
33.586,33.115
33.575,33.115
33.563,33.117
33.55,33.121
33.537,33.124
33.523,33.126
33.51,33.126
33.499,33.123
33.489,33.118
33.483,33.11
33.48,33.1
33.479,33.086
33.478,33.071
33.478,33.054
33.477,33.036
33.475,33.018
33.472,32.999
33.467,32.98
33.462,32.962
33.455,32.945
33.446,32.93
33.435,32.918
33.422,32.91
33.408,32.907
33.393,32.911
33.377,32.921
33.36,32.939
33.343,32.965
33.326,33.002
33.307,33.05
33.287,33.11
33.266,33.183
33.244,33.267
33.221,33.363
33.198,33.468
33.175,33.582
33.153,33.702
33.13,33.826
33.108,33.951
33.086,34.077
33.063,34.202
33.041,34.323
33.02,34.44
32.999,34.551
32.98,34.655
32.961,34.75
32.941,34.834
32.92,34.906
32.898,34.966
32.876,35.013
32.856,35.047
32.842,35.069
32.837,35.08
32.847,35.081
32.877,35.073
32.936,35.058
33.031,35.04
33.17,35.018
33.36,34.994
33.606,34.971
33.907,34.948
34.264,34.926
34.672,34.905
35.124,34.885
35.612,34.866
36.124,34.848
36.65,34.83
37.178,34.814
37.696,34.8
38.195,34.788
38.664,34.778
39.095,34.769
39.484,34.762
39.824,34.757
40.114,34.753
40.353,34.748
40.54,34.743
40.679,34.737
40.771,34.729
40.821,34.72
40.834,34.709
40.815,34.697
40.769,34.683
40.701,34.668
40.615,34.652
40.515,34.635
40.404,34.616
40.286,34.594
40.163,34.571
40.038,34.544
39.913,34.515
39.789,34.483
39.667,34.449
39.549,34.414
39.434,34.378
39.321,34.344
39.211,34.313
39.103,34.284
38.998,34.258
38.895,34.237
38.794,34.221
38.696,34.21
38.6,34.203
38.508,34.199
38.419,34.199
38.334,34.201
38.252,34.205
38.175,34.209
38.1,34.213
38.026,34.216
37.954,34.217
37.88,34.215
37.805,34.212
37.729,34.207
37.65,34.2
37.57,34.192
37.488,34.183
37.404,34.172
37.319,34.16
37.234,34.147
37.15,34.134
37.067,34.121
36.987,34.109
36.911,34.097
36.84,34.086
36.776,34.075
36.718,34.063
36.668,34.051
36.629,34.039
36.599,34.026
36.58,34.012
36.571,33.996
36.571,33.981
36.58,33.965
36.597,33.949
36.62,33.932
36.648,33.915
36.679,33.898
36.711,33.882
36.743,33.865
36.773,33.848
36.8,33.832
36.824,33.816
36.844,33.801
36.86,33.786
36.872,33.771
36.878,33.756
36.88,33.74
36.876,33.725
36.867,33.71
36.853,33.695
36.832,33.679
36.806,33.663
36.774,33.648
36.736,33.633
36.694,33.619
36.646,33.605
36.595,33.594
36.54,33.584
36.482,33.575
36.423,33.567
36.361,33.559
36.299,33.551
36.236,33.542
36.172,33.533
36.107,33.524
36.042,33.515
35.975,33.506
35.908,33.498
35.838,33.492
35.766,33.489
35.692,33.489
35.617,33.492
35.54,33.498
35.463,33.507
35.387,33.518
35.311,33.529
35.237,33.54
35.164,33.549
35.09,33.555
35.017,33.558
34.943,33.557
34.869,33.552
34.796,33.543
34.724,33.532
34.654,33.52
34.587,33.506
34.525,33.493
34.466,33.479
34.411,33.466
34.36,33.455
34.31,33.444
34.261,33.435
34.213,33.425
34.167,33.414
34.122,33.402
34.079,33.39
34.038,33.379
34.001,33.368
33.965,33.359
33.932,33.352
33.902,33.347
33.874,33.345
33.847,33.346
33.822,33.35
33.799,33.357
33.777,33.367
33.757,33.381
33.736,33.396
33.715,33.414
33.694,33.434
33.672,33.456
33.65,33.48
33.629,33.508
33.61,33.541
33.592,33.578
33.577,33.623
33.564,33.675
33.553,33.735
33.544,33.804
33.535,33.881
33.527,33.965
33.518,34.055
33.51,34.15
33.502,34.249
33.496,34.349
33.492,34.448
33.489,34.545
33.487,34.638
33.486,34.724
33.485,34.802
33.483,34.871
33.48,34.93
33.475,34.978
33.469,35.016
33.463,35.044
33.456,35.062
33.449,35.072
33.442,35.075
33.433,35.07
33.422,35.059
33.41,35.044
33.395,35.024
33.377,35.002
33.356,34.978
33.331,34.954
33.302,34.929
33.271,34.904
33.238,34.878
33.203,34.853
33.169,34.828
33.136,34.803
33.104,34.778
33.074,34.754
33.046,34.731
33.02,34.71
32.994,34.69
32.97,34.673
32.946,34.659
32.921,34.647
32.896,34.638
32.871,34.63
32.845,34.623
32.82,34.617
32.796,34.61
32.774,34.602
32.757,34.592
32.747,34.58
32.747,34.566
32.762,34.549
32.796,34.531
32.858,34.511
32.954,34.488
33.091,34.464
33.276,34.439
33.514,34.414
33.808,34.388
34.159,34.362
34.561,34.338
35.011,34.317
35.501,34.3
36.022,34.286
36.561,34.276
37.106,34.268
37.646,34.264
38.168,34.262
38.663,34.261
39.122,34.261
39.539,34.261
39.908,34.26
40.226,34.258
40.493,34.256
40.708,34.252
40.874,34.248
40.992,34.243
41.066,34.238
41.101,34.233
41.1,34.23
41.067,34.228
41.008,34.229
40.927,34.231
40.83,34.234
40.721,34.238
40.603,34.24
40.481,34.241
40.356,34.241
40.231,34.24
40.108,34.237
39.987,34.234
39.869,34.229
39.755,34.223
39.643,34.215
39.535,34.206
39.43,34.195
39.327,34.182
39.225,34.169
39.125,34.156
39.027,34.142
38.932,34.128
38.838,34.113
38.747,34.097
38.658,34.08
38.572,34.062
38.486,34.044
38.402,34.025
38.318,34.006
38.233,33.987
38.148,33.968
38.06,33.951
37.97,33.935
37.878,33.921
37.783,33.91
37.688,33.9
37.592,33.893
37.497,33.887
37.404,33.882
37.314,33.877
37.226,33.872
37.141,33.865
37.061,33.858
36.986,33.849
36.917,33.84
36.856,33.829
36.803,33.818
36.76,33.807
36.726,33.796
36.701,33.788
36.684,33.781
36.677,33.778
36.677,33.779
36.684,33.781
36.697,33.786
36.715,33.792
36.737,33.799
36.761,33.805
36.787,33.81
36.813,33.814
36.839,33.815
36.864,33.815
36.885,33.812
36.902,33.806
36.912,33.798
36.917,33.789
36.918,33.778
36.914,33.765
36.906,33.752
36.895,33.739
36.88,33.727
36.86,33.714
36.835,33.703
36.804,33.693
36.767,33.686
36.724,33.681
36.676,33.678
36.621,33.675
36.561,33.673
36.497,33.671
36.429,33.669
36.359,33.668
36.287,33.667
36.215,33.668
36.142,33.67
36.07,33.676
35.997,33.685
35.923,33.697
35.847,33.714
35.769,33.736
35.69,33.764
35.61,33.799
35.53,33.84
35.45,33.887
35.37,33.94
35.292,34
35.214,34.065
35.138,34.136
35.062,34.211
34.987,34.289
34.912,34.369
34.837,34.45
34.762,34.531
34.687,34.611
34.614,34.689
34.542,34.764
34.472,34.836
34.404,34.905
34.34,34.969
34.279,35.028
34.221,35.081
34.167,35.128
34.117,35.168
34.07,35.201
34.025,35.227
33.983,35.245
33.942,35.255
33.903,35.258
33.864,35.254
33.827,35.245
33.792,35.229
33.761,35.209
33.733,35.189
33.708,35.174
33.687,35.166
33.668,35.163
33.65,35.163
33.633,35.164
33.618,35.164
33.603,35.16
33.59,35.15
33.579,35.134
33.569,35.111
33.561,35.081
33.554,35.045
33.549,35.003
33.544,34.958
33.54,34.91
33.536,34.86
33.532,34.809
33.527,34.761
33.521,34.715
33.515,34.672
33.508,34.634
33.503,34.599
33.5,34.568
33.5,34.541
33.502,34.517
33.506,34.496
33.511,34.478
33.517,34.461
33.522,34.446
33.526,34.433
33.528,34.421
33.529,34.41
33.528,34.4
33.525,34.391
33.522,34.382
33.517,34.374
33.51,34.367
33.503,34.36
33.494,34.354
33.484,34.349
33.474,34.345
33.462,34.342
33.448,34.34
33.431,34.338
33.411,34.338
33.388,34.339
33.363,34.34
33.337,34.342
33.311,34.344
33.285,34.344
33.26,34.343
33.237,34.341
33.214,34.337
33.192,34.331
33.17,34.324
33.15,34.316
33.134,34.308
33.124,34.301
33.122,34.293
33.134,34.287
33.163,34.28
33.216,34.275
33.299,34.269
33.416,34.264
33.575,34.258
33.78,34.251
34.034,34.243
34.338,34.234
34.69,34.222
35.087,34.208
35.522,34.192
35.987,34.173
36.474,34.154
36.97,34.135
37.466,34.117
37.949,34.1
38.412,34.086
38.846,34.074
39.244,34.065
39.601,34.057
39.914,34.051
40.182,34.047
40.405,34.043
40.582,34.04
40.716,34.037
40.81,34.032
40.867,34.026
40.892,34.018
40.886,34.011
40.855,34.003
40.801,33.997
40.727,33.991
40.638,33.987
40.537,33.984
40.427,33.981
40.313,33.98
40.197,33.977
40.083,33.974
39.97,33.969
39.861,33.962
39.754,33.954
39.65,33.946
39.549,33.937
39.451,33.927
39.356,33.917
39.262,33.906
39.17,33.895
39.08,33.884
38.992,33.873
38.906,33.863
38.824,33.855
38.744,33.849
38.667,33.845
38.591,33.842
38.515,33.841
38.438,33.841
38.358,33.842
38.275,33.844
38.189,33.846
38.099,33.849
38.006,33.851
37.912,33.851
37.817,33.85
37.723,33.847
37.632,33.842
37.545,33.835
37.464,33.826
37.389,33.816
37.322,33.806
37.262,33.796
37.208,33.788
37.162,33.78
37.123,33.774
37.093,33.769
37.071,33.766
37.058,33.764
37.054,33.765
37.059,33.766
37.07,33.768
37.088,33.77
37.111,33.774
37.137,33.779
37.164,33.789
37.192,33.803
37.219,33.823
37.243,33.85
37.266,33.885
37.287,33.929
37.306,33.981
37.322,34.04
37.336,34.107
37.346,34.18
37.352,34.258
37.352,34.339
37.347,34.425
37.335,34.512
37.317,34.6
37.291,34.688
37.26,34.774
37.221,34.857
37.177,34.936
37.128,35.01
37.075,35.078
37.017,35.138
36.956,35.19
36.892,35.234
36.824,35.269
36.753,35.293
36.679,35.308
36.602,35.314
36.522,35.312
36.441,35.304
36.36,35.291
36.278,35.272
36.199,35.249
36.122,35.223
36.047,35.194
35.975,35.162
35.904,35.128
35.834,35.091
35.765,35.053
35.697,35.015
35.63,34.978
35.563,34.942
35.497,34.908
35.431,34.877
35.367,34.849
35.303,34.824
35.239,34.801
35.175,34.78
35.113,34.762
35.051,34.745
34.992,34.729
34.936,34.713
34.881,34.698
34.829,34.682
34.778,34.667
34.729,34.651
34.681,34.636
34.635,34.621
34.59,34.606
34.547,34.591
34.507,34.576
34.472,34.561
34.44,34.546
34.414,34.532
34.391,34.518
34.372,34.506
34.356,34.494
34.342,34.483
34.329,34.472
34.317,34.462
34.307,34.453
34.298,34.446
34.29,34.438
34.284,34.425
34.28,34.404
34.278,34.378
34.277,34.347
34.275,34.316
34.272,34.287
34.269,34.262
34.263,34.244
34.256,34.234
34.247,34.233
34.236,34.24
34.223,34.253
34.209,34.272
34.193,34.293
34.176,34.315
34.158,34.335
34.14,34.352
34.122,34.365
34.103,34.374
34.082,34.378
34.059,34.377
34.034,34.371
34.005,34.363
33.975,34.352
33.942,34.34
33.909,34.326
33.875,34.312
33.842,34.299
33.81,34.285
