Trial 1:0back,Trial 6:0back
33.751,34.052
33.732,34.082
33.711,34.119
33.687,34.164
33.661,34.217
33.631,34.279
33.598,34.349
33.562,34.427
33.524,34.515
33.484,34.61
33.443,34.711
33.401,34.818
33.358,34.929
33.314,35.042
33.271,35.156
33.229,35.27
33.187,35.382
33.146,35.49
33.107,35.592
33.07,35.687
33.035,35.774
33.004,35.852
32.977,35.919
32.955,35.975
32.937,36.02
32.922,36.053
32.911,36.075
32.903,36.086
32.898,36.087
32.897,36.079
32.899,36.061
32.905,36.035
32.917,36.001
32.935,35.959
32.961,35.913
32.998,35.862
33.048,35.807
33.113,35.75
33.193,35.691
33.29,35.632
33.405,35.572
33.538,35.515
33.688,35.459
33.853,35.406
34.031,35.355
34.218,35.307
34.411,35.262
34.607,35.221
34.802,35.183
34.994,35.149
35.178,35.119
35.352,35.093
35.512,35.069
35.657,35.048
35.786,35.029
35.899,35.013
35.995,35
36.074,34.989
36.137,34.98
36.182,34.973
36.211,34.967
36.226,34.963
36.228,34.958
36.217,34.954
36.195,34.949
36.162,34.945
36.12,34.94
36.071,34.935
36.014,34.929
35.952,34.923
35.886,34.916
35.815,34.91
35.741,34.904
35.664,34.898
35.587,34.893
35.508,34.889
35.429,34.887
35.349,34.886
35.27,34.887
35.192,34.891
35.117,34.897
35.044,34.905
34.975,34.914
34.908,34.926
34.846,34.939
34.786,34.953
34.73,34.967
34.678,34.981
34.629,34.993
34.585,35.004
34.544,35.012
34.507,35.019
34.474,35.023
34.445,35.024
34.42,35.021
34.401,35.014
34.385,35.004
34.373,34.99
34.363,34.974
34.356,34.954
34.351,34.931
34.349,34.905
34.348,34.876
34.347,34.845
34.348,34.813
34.348,34.781
34.349,34.749
34.35,34.719
34.352,34.69
34.353,34.663
34.356,34.639
34.357,34.619
34.359,34.601
34.361,34.586
34.363,34.574
34.366,34.564
34.369,34.557
34.372,34.552
34.374,34.549
34.375,34.547
34.377,34.547
34.378,34.548
34.379,34.55
34.38,34.553
34.381,34.555
34.382,34.556
34.382,34.556
34.382,34.553
34.381,34.548
34.379,34.541
34.376,34.532
34.371,34.519
34.364,34.504
34.355,34.487
34.344,34.468
34.331,34.447
34.314,34.426
34.294,34.404
34.271,34.382
34.244,34.36
34.213,34.34
34.179,34.321
34.143,34.305
34.106,34.292
34.068,34.28
34.027,34.27
33.983,34.263
33.937,34.258
33.889,34.254
33.84,34.251
33.79,34.247
33.742,34.243
33.696,34.239
33.654,34.238
33.615,34.238
33.58,34.239
33.551,34.243
33.526,34.25
33.506,34.26
33.491,34.275
33.48,34.295
33.474,34.32
33.472,34.35
33.474,34.385
33.478,34.427
33.484,34.476
33.489,34.533
33.491,34.599
33.491,34.673
33.486,34.754
33.477,34.845
33.461,34.944
33.439,35.052
33.41,35.167
33.376,35.288
33.339,35.412
33.298,35.537
33.255,35.662
33.213,35.783
33.172,35.899
33.134,36.007
33.101,36.106
33.075,36.195
33.058,36.272
33.052,36.337
33.057,36.39
33.076,36.43
33.113,36.458
33.173,36.473
33.264,36.476
33.381,36.468
33.517,36.449
33.666,36.421
33.826,36.384
33.995,36.339
34.171,36.287
34.353,36.231
34.539,36.171
34.726,36.11
34.912,36.049
35.095,35.988
35.274,35.929
35.446,35.873
35.609,35.822
35.759,35.776
35.895,35.734
36.015,35.698
36.119,35.666
36.205,35.638
36.273,35.614
36.323,35.595
36.355,35.579
36.371,35.566
36.371,35.556
36.357,35.549
36.331,35.543
36.293,35.54
36.246,35.538
36.191,35.537
36.13,35.534
36.065,35.53
36,35.524
35.934,35.516
35.87,35.507
35.809,35.497
35.75,35.486
35.696,35.474
35.647,35.462
35.604,35.449
35.564,35.438
35.529,35.428
35.496,35.422
35.467,35.418
35.439,35.417
35.412,35.42
35.386,35.426
35.36,35.435
35.332,35.448
35.302,35.464
35.271,35.483
35.239,35.503
35.204,35.525
35.168,35.548
35.13,35.572
35.091,35.597
35.05,35.622
35.009,35.646
34.969,35.666
34.93,35.684
34.892,35.699
34.857,35.71
34.825,35.718
34.798,35.721
34.777,35.719
34.762,35.713
34.754,35.702
34.751,35.687
34.753,35.668
34.761,35.646
34.774,35.619
34.791,35.587
34.812,35.553
34.835,35.515
34.859,35.477
34.882,35.437
34.905,35.397
34.925,35.357
34.943,35.317
34.957,35.278
34.967,35.241
34.973,35.207
34.974,35.176
34.97,35.147
34.963,35.12
34.952,35.096
34.938,35.075
34.92,35.057
34.899,35.044
34.876,35.035
34.852,35.028
34.826,35.024
34.799,35.022
34.77,35.02
34.738,35.019
34.704,35.016
34.669,35.011
34.633,35.002
34.597,34.989
34.56,34.971
34.525,34.949
34.49,34.925
34.456,34.898
34.424,34.869
34.394,34.839
34.365,34.809
34.338,34.779
34.311,34.75
34.285,34.722
34.257,34.695
34.23,34.671
34.202,34.648
34.173,34.628
34.143,34.611
34.112,34.596
34.079,34.584
34.044,34.573
34.007,34.566
33.969,34.562
33.929,34.562
33.888,34.564
33.845,34.569
33.801,34.575
33.755,34.582
33.71,34.589
33.664,34.597
33.619,34.605
33.574,34.61
33.531,34.613
33.49,34.613
33.453,34.61
33.418,34.604
33.388,34.596
33.363,34.583
33.341,34.567
33.323,34.546
33.308,34.522
33.295,34.496
33.285,34.469
33.278,34.442
33.273,34.415
33.268,34.391
33.261,34.371
33.254,34.357
33.244,34.351
33.233,34.356
33.221,34.372
33.207,34.401
33.191,34.445
33.175,34.503
33.158,34.577
33.14,34.665
33.124,34.768
33.11,34.884
33.1,35.01
33.096,35.145
33.1,35.287
33.113,35.433
33.138,35.579
33.178,35.723
33.234,35.861
33.307,35.991
33.396,36.112
33.503,36.22
33.627,36.317
33.767,36.4
33.92,36.469
34.083,36.523
34.254,36.563
34.43,36.59
34.606,36.604
34.779,36.607
34.947,36.6
35.107,36.583
35.255,36.559
35.389,36.53
35.506,36.496
35.605,36.46
35.686,36.422
35.747,36.383
35.789,36.345
35.813,36.306
35.821,36.27
35.813,36.236
35.792,36.205
35.758,36.176
35.713,36.149
35.659,36.124
35.596,36.1
35.527,36.077
35.454,36.054
35.377,36.031
35.3,36.009
35.221,35.986
35.143,35.962
35.067,35.938
34.994,35.913
34.926,35.887
34.863,35.86
34.807,35.831
34.756,35.801
34.711,35.769
34.671,35.738
34.638,35.708
34.609,35.679
34.587,35.653
34.57,35.63
34.557,35.609
34.547,35.592
34.539,35.579
34.531,35.57
34.523,35.566
34.513,35.567
34.501,35.572
34.486,35.582
34.469,35.596
34.448,35.614
34.425,35.635
34.4,35.659
34.375,35.683
34.351,35.708
34.327,35.732
34.306,35.754
34.288,35.775
34.272,35.795
34.259,35.812
34.25,35.827
34.244,35.839
34.241,35.846
34.24,35.85
34.242,35.851
34.248,35.847
34.256,35.839
34.267,35.827
34.279,35.812
34.293,35.793
34.308,35.772
34.324,35.748
34.34,35.721
34.358,35.693
34.375,35.664
34.392,35.636
34.408,35.608
34.421,35.583
34.431,35.558
34.438,35.536
34.441,35.514
34.44,35.494
34.435,35.474
34.426,35.454
34.413,35.434
34.396,35.414
34.375,35.395
34.35,35.376
34.321,35.359
34.29,35.342
34.255,35.326
34.218,35.31
34.18,35.294
34.141,35.277
34.102,35.258
34.062,35.237
34.022,35.213
33.983,35.188
33.944,35.16
33.907,35.129
33.873,35.096
33.84,35.06
33.809,35.023
33.78,34.984
33.753,34.945
33.728,34.907
33.706,34.87
33.685,34.835
33.665,34.804
33.646,34.776
33.628,34.752
33.61,34.733
33.591,34.717
33.572,34.704
33.552,34.695
33.531,34.689
33.509,34.685
33.486,34.683
33.462,34.681
33.438,34.682
33.412,34.683
33.386,34.685
33.359,34.688
33.333,34.69
33.307,34.692
33.283,34.692
33.26,34.69
33.239,34.687
33.22,34.682
33.203,34.674
33.187,34.663
33.172,34.649
33.158,34.633
33.146,34.616
33.135,34.597
33.125,34.577
33.117,34.556
33.11,34.534
33.104,34.513
33.098,34.491
33.094,34.471
33.091,34.453
33.089,34.436
33.089,34.421
33.09,34.409
33.092,34.4
33.096,34.395
33.102,34.395
33.111,34.4
33.122,34.411
33.138,34.43
33.157,34.457
33.182,34.493
33.214,34.541
33.255,34.6
33.307,34.671
33.369,34.754
33.443,34.848
33.529,34.952
33.625,35.064
33.733,35.182
33.85,35.304
33.977,35.428
34.11,35.552
34.248,35.675
34.388,35.794
34.53,35.909
34.67,36.018
34.806,36.121
34.935,36.215
35.056,36.301
35.167,36.378
35.267,36.446
35.355,36.505
35.431,36.554
35.493,36.595
35.541,36.625
35.574,36.647
35.593,36.66
35.598,36.664
35.59,36.661
35.57,36.65
35.539,36.633
35.497,36.61
35.446,36.583
35.387,36.552
35.322,36.518
35.252,36.481
35.179,36.442
35.102,36.401
35.024,36.359
34.945,36.315
34.866,36.27
34.789,36.226
34.714,36.182
34.642,36.138
34.574,36.095
34.51,36.052
34.45,36.01
34.397,35.969
34.348,35.929
34.305,35.89
34.267,35.853
34.234,35.817
34.205,35.783
34.178,35.754
34.155,35.733
34.135,35.72
34.119,35.716
34.105,35.718
34.094,35.725
34.085,35.733
34.077,35.743
34.07,35.751
34.064,35.758
34.059,35.762
34.055,35.764
34.052,35.765
34.051,35.765
34.051,35.765
34.052,35.764
34.055,35.764
34.059,35.765
34.064,35.767
34.07,35.77
34.077,35.774
34.086,35.779
34.095,35.785
34.107,35.791
34.119,35.797
34.133,35.802
34.149,35.807
34.166,35.811
34.185,35.813
34.205,35.815
34.226,35.815
34.247,35.815
34.269,35.813
34.29,35.811
34.31,35.807
34.33,35.803
34.348,35.797
34.364,35.79
34.377,35.781
34.386,35.771
34.392,35.761
34.394,35.749
34.392,35.738
34.386,35.727
34.375,35.717
34.361,35.706
34.342,35.694
34.319,35.682
34.294,35.669
34.266,35.655
34.236,35.638
34.203,35.618
34.168,35.595
34.131,35.57
34.092,35.542
34.052,35.513
34.012,35.481
33.971,35.448
33.932,35.413
33.895,35.376
33.861,35.338
33.83,35.299
33.804,35.26
33.783,35.221
33.765,35.183
33.751,35.147
33.739,35.113
33.73,35.081
33.723,35.052
33.718,35.026
33.715,35.003
33.711,34.983
33.708,34.966
33.705,34.952
33.701,34.942
33.696,34.934
33.69,34.928
33.683,34.923
33.674,34.919
33.662,34.914
33.649,34.909
33.633,34.903
33.615,34.896
33.596,34.888
33.576,34.879
33.554,34.87
33.531,34.86
33.507,34.848
33.484,34.835
33.461,34.822
33.439,34.807
33.418,34.792
33.399,34.775
33.384,34.758
33.372,34.739
33.364,34.72
33.361,34.702
33.363,34.684
33.371,34.668
33.384,34.653
33.405,34.641
33.433,34.63
33.471,34.621
33.52,34.614
33.581,34.608
33.654,34.602
33.74,34.596
33.838,34.59
33.949,34.585
34.071,34.581
34.202,34.578
34.34,34.575
34.484,34.572
34.63,34.569
34.778,34.567
34.924,34.566
35.065,34.57
35.199,34.579
35.324,34.595
35.438,34.62
35.54,34.654
35.629,34.699
35.704,34.756
35.764,34.825
35.81,34.907
35.841,35.002
35.86,35.108
35.867,35.225
35.864,35.352
35.851,35.486
35.829,35.626
35.8,35.769
35.764,35.913
35.723,36.055
35.678,36.193
35.631,36.327
35.583,36.453
35.534,36.57
35.485,36.677
35.435,36.772
35.384,36.854
35.333,36.923
35.28,36.978
35.224,37.021
35.167,37.05
35.109,37.066
35.049,37.071
34.988,37.065
34.927,37.049
34.865,37.023
34.802,36.99
34.741,36.948
34.68,36.901
34.622,36.848
34.566,36.793
34.513,36.735
34.461,36.676
34.413,36.617
34.369,36.559
34.329,36.502
34.294,36.449
34.265,36.398
34.241,36.35
34.224,36.306
34.212,36.266
34.206,36.228
34.207,36.194
34.215,36.163
34.228,36.136
34.247,36.111
34.271,36.09
34.297,36.071
34.327,36.056
34.358,36.043
34.391,36.033
34.423,36.026
34.454,36.022
34.483,36.019
34.509,36.019
34.532,36.02
34.552,36.022
34.569,36.026
34.582,36.03
34.592,36.036
34.599,36.042
34.602,36.048
34.601,36.054
34.598,36.06
34.592,36.066
34.584,36.071
34.574,36.075
34.563,36.077
34.553,36.079
34.542,36.08
34.532,36.082
34.522,36.084
34.513,36.087
34.505,36.091
34.497,36.095
34.489,36.099
34.481,36.104
34.474,36.109
34.466,36.114
34.458,36.119
34.448,36.124
34.436,36.129
34.422,36.134
34.405,36.137
34.385,36.14
34.363,36.142
34.338,36.14
34.309,36.136
34.278,36.129
34.244,36.119
34.208,36.104
34.171,36.086
34.134,36.063
34.098,36.036
34.062,36.005
34.028,35.97
33.997,35.933
33.968,35.892
33.942,35.85
33.918,35.807
33.898,35.761
33.88,35.715
33.865,35.669
33.854,35.622
33.846,35.576
33.84,35.531
33.838,35.489
33.837,35.449
33.839,35.412
33.842,35.378
33.846,35.347
33.851,35.319
33.857,35.295
33.862,35.273
33.866,35.255
33.868,35.239
33.869,35.226
33.867,35.217
33.863,35.21
33.855,35.204
33.844,35.199
33.831,35.193
33.814,35.187
33.794,35.18
33.773,35.171
33.751,35.161
33.729,35.147
33.707,35.131
33.688,35.113
33.671,35.093
33.66,35.071
33.653,35.047
33.653,35.022
33.661,34.995
33.681,34.968
33.713,34.941
33.761,34.915
33.826,34.892
33.907,34.87
34.006,34.851
34.121,34.835
34.251,34.821
34.394,34.809
34.549,34.801
34.712,34.794
34.88,34.79
35.051,34.788
35.22,34.787
35.384,34.786
35.539,34.787
35.684,34.788
35.815,34.79
35.93,34.791
36.028,34.793
36.107,34.793
36.169,34.793
36.213,34.79
36.24,34.786
36.25,34.78
36.245,34.771
36.227,34.759
36.197,34.744
36.156,34.726
36.108,34.706
36.053,34.684
35.993,34.659
35.929,34.632
35.863,34.603
35.797,34.574
35.73,34.545
35.664,34.519
35.599,34.495
35.535,34.475
35.473,34.461
35.414,34.453
35.357,34.452
35.305,34.46
35.257,34.48
35.213,34.511
35.172,34.556
35.135,34.616
35.098,34.692
35.063,34.785
35.027,34.895
34.991,35.021
34.954,35.161
34.916,35.313
34.877,35.474
34.836,35.641
34.795,35.813
34.754,35.985
34.712,36.157
34.671,36.323
34.631,36.482
34.594,36.63
34.561,36.767
34.533,36.89
34.511,37
34.495,37.095
34.487,37.175
34.485,37.241
34.49,37.294
34.501,37.332
34.516,37.359
34.535,37.374
34.556,37.379
34.581,37.375
34.608,37.363
34.637,37.345
34.668,37.322
34.699,37.295
34.729,37.265
34.759,37.233
34.787,37.2
34.812,37.165
34.834,37.131
34.852,37.098
34.867,37.064
34.877,37.032
34.884,36.999
34.887,36.967
34.887,36.936
34.882,36.905
34.875,36.874
34.865,36.844
34.852,36.812
34.837,36.781
34.819,36.75
34.799,36.719
34.777,36.687
34.754,36.655
34.731,36.624
34.707,36.591
34.685,36.558
34.663,36.525
34.642,36.492
34.621,36.459
34.601,36.428
34.582,36.399
34.563,36.374
34.546,36.353
34.529,36.336
34.513,36.324
34.497,36.317
34.48,36.313
34.462,36.312
34.442,36.315
34.421,36.322
34.398,36.331
34.373,36.343
34.346,36.358
34.318,36.376
34.287,36.395
34.255,36.416
34.222,36.437
34.189,36.458
34.155,36.478
34.122,36.496
34.088,36.511
34.055,36.523
34.023,36.531
33.992,36.537
33.963,36.538
33.937,36.536
33.915,36.528
33.897,36.516
33.883,36.499
33.872,36.478
33.865,36.454
33.861,36.426
33.858,36.395
33.857,36.362
33.856,36.328
33.856,36.293
33.856,36.258
33.856,36.223
33.857,36.189
33.856,36.156
33.855,36.125
33.853,36.095
33.848,36.067
33.842,36.04
33.834,36.015
33.823,35.99
33.81,35.967
33.797,35.945
33.783,35.924
33.77,35.903
33.759,35.883
33.751,35.862
33.749,35.84
33.753,35.816
33.768,35.789
33.793,35.76
33.831,35.727
33.884,35.693
33.953,35.658
34.039,35.622
34.142,35.586
34.261,35.55
34.395,35.511
34.544,35.47
34.703,35.427
34.872,35.383
35.046,35.339
35.224,35.295
35.401,35.253
35.573,35.213
35.739,35.178
35.894,35.15
36.037,35.129
36.164,35.117
36.274,35.111
36.365,35.11
36.438,35.114
36.492,35.12
36.527,35.126
36.545,35.132
36.546,35.137
36.532,35.141
36.506,35.143
36.467,35.142
36.419,35.139
36.363,35.133
36.301,35.124
36.234,35.112
36.164,35.098
36.093,35.08
36.021,35.061
35.951,35.038
35.882,35.013
35.816,34.986
35.753,34.957
35.692,34.927
35.634,34.898
35.58,34.869
35.529,34.84
35.48,34.812
35.435,34.785
35.391,34.76
35.351,34.737
35.312,34.717
35.276,34.7
35.241,34.685
35.207,34.672
35.173,34.662
35.139,34.653
35.105,34.646
35.072,34.639
35.039,34.634
35.007,34.63
34.976,34.629
34.946,34.631
34.917,34.637
34.889,34.647
34.863,34.664
34.839,34.687
34.818,34.718
34.801,34.76
34.787,34.813
34.778,34.88
34.775,34.96
34.776,35.053
34.783,35.159
34.794,35.277
34.81,35.406
34.83,35.543
34.852,35.687
34.877,35.836
34.904,35.988
34.931,36.141
34.959,36.293
34.986,36.443
35.011,36.588
35.034,36.726
35.054,36.856
35.07,36.974
35.083,37.081
35.091,37.175
35.096,37.255
35.098,37.322
35.096,37.375
35.091,37.416
35.082,37.445
35.069,37.463
35.054,37.471
35.035,37.468
35.013,37.456
34.99,37.436
34.965,37.408
34.939,37.374
34.913,37.334
34.887,37.289
34.861,37.24
34.837,37.189
34.813,37.137
34.79,37.083
34.769,37.03
34.748,36.976
34.729,36.923
34.711,36.871
34.696,36.821
34.682,36.773
34.669,36.728
34.656,36.686
34.643,36.647
34.628,36.61
34.612,36.576
34.593,36.542
34.571,36.511
34.545,36.483
34.517,36.456
34.486,36.433
34.454,36.411
34.421,36.392
34.388,36.377
34.355,36.364
34.323,36.355
34.291,36.349
34.26,36.345
34.231,36.342
34.203,36.343
34.176,36.346
34.151,36.351
34.127,36.357
34.105,36.365
34.085,36.372
34.068,36.379
34.055,36.385
34.044,36.391
34.037,36.397
34.031,36.402
34.029,36.405
34.03,36.406
34.033,36.405
34.035,36.402
34.034,36.396
34.026,36.388
34.014,36.377
33.997,36.364
33.972,36.35
33.94,36.334
33.906,36.319
33.873,36.303
33.845,36.287
33.822,36.271
33.806,36.254
33.798,36.237
33.798,36.22
33.806,36.201
33.822,36.182
33.847,36.163
33.881,36.143
33.924,36.122
33.976,36.1
34.04,36.077
34.115,36.053
34.202,36.028
34.301,36.001
34.413,35.973
34.538,35.942
34.673,35.909
34.819,35.873
34.972,35.834
35.13,35.793
35.293,35.749
35.456,35.702
35.617,35.652
35.775,35.601
35.925,35.548
36.065,35.494
36.193,35.44
36.307,35.386
36.407,35.333
36.49,35.281
36.557,35.233
36.606,35.187
36.638,35.146
36.655,35.107
36.657,35.072
36.646,35.041
36.622,35.014
36.587,34.989
36.543,34.968
36.491,34.95
36.433,34.935
36.37,34.922
36.304,34.912
36.236,34.903
36.167,34.895
36.097,34.887
36.029,34.877
35.963,34.867
35.899,34.855
35.84,34.843
35.784,34.829
35.733,34.815
35.686,34.8
35.643,34.784
35.603,34.766
35.566,34.748
35.531,34.728
35.496,34.708
35.462,34.687
35.426,34.665
35.39,34.643
35.352,34.62
35.314,34.597
35.274,34.574
35.234,34.552
35.194,34.532
35.154,34.514
35.115,34.497
35.077,34.484
35.041,34.472
35.008,34.462
34.978,34.454
34.952,34.448
34.93,34.443
34.913,34.439
34.902,34.434
34.897,34.43
34.898,34.427
34.904,34.422
34.916,34.417
34.932,34.41
34.953,34.401
34.977,34.389
35.005,34.374
35.034,34.357
35.065,34.335
35.096,34.311
35.127,34.284
35.157,34.254
35.184,34.223
35.209,34.19
35.23,34.157
35.248,34.126
35.261,34.095
35.271,34.069
35.277,34.047
35.279,34.032
35.276,34.025
35.269,34.029
35.257,34.045
35.241,34.074
35.222,34.119
35.199,34.179
35.174,34.257
35.147,34.352
35.119,34.466
35.091,34.597
35.063,34.742
35.037,34.901
35.012,35.071
34.988,35.251
34.967,35.436
34.947,35.624
34.929,35.813
34.914,35.998
34.9,36.177
34.888,36.347
34.877,36.507
34.867,36.654
34.857,36.786
34.845,36.902
34.834,37.003
34.82,37.086
34.805,37.153
34.787,37.204
34.766,37.24
34.743,37.263
34.717,37.273
34.689,37.272
34.659,37.26
34.626,37.24
34.592,37.213
34.557,37.18
34.522,37.142
34.487,37.102
34.453,37.06
34.42,37.017
34.389,36.973
34.36,36.929
34.335,36.888
34.313,36.849
34.295,36.813
34.281,36.78
34.271,36.749
34.263,36.72
34.258,36.695
34.256,36.671
34.255,36.65
34.257,36.629
34.26,36.609
34.264,36.586
34.268,36.563
34.272,36.536
34.275,36.508
34.276,36.477
34.276,36.444
34.272,36.41
34.266,36.373
34.257,36.337
34.245,36.3
34.231,36.265
34.217,36.232
34.201,36.202
34.186,36.175
34.173,36.152
34.164,36.133
34.16,36.119
34.164,36.11
34.178,36.107
34.204,36.107
34.244,36.111
34.3,36.118
34.374,36.127
34.466,36.139
34.576,36.154
34.702,36.171
34.844,36.19
34.999,36.212
35.164,36.234
35.337,36.258
35.514,36.281
35.693,36.303
35.869,36.324
36.04,36.34
36.201,36.353
36.351,36.361
36.486,36.364
36.605,36.361
36.707,36.353
36.79,36.341
36.855,36.325
36.901,36.305
36.929,36.28
36.94,36.249
36.934,36.215
36.915,36.176
36.883,36.134
36.839,36.091
36.785,36.045
36.724,36
36.657,35.953
36.587,35.908
36.515,35.865
36.442,35.823
36.371,35.784
36.302,35.746
36.235,35.711
36.172,35.678
36.112,35.648
36.055,35.621
36.002,35.596
35.951,35.573
35.903,35.549
35.857,35.527
35.811,35.504
35.765,35.483
35.719,35.461
35.671,35.438
35.622,35.414
35.571,35.388
35.518,35.361
35.464,35.332
35.41,35.302
35.356,35.271
35.303,35.238
35.253,35.204
35.206,35.168
35.162,35.13
35.121,35.092
35.085,35.055
35.054,35.019
35.028,34.984
35.009,34.95
34.996,34.919
34.99,34.89
34.991,34.865
34.999,34.845
35.013,34.828
35.032,34.816
35.057,34.807
35.087,34.8
35.12,34.796
35.158,34.795
35.198,34.796
35.24,34.798
35.282,34.8
35.323,34.803
35.363,34.805
35.401,34.807
35.435,34.808
35.465,34.808
35.49,34.806
35.51,34.802
35.525,34.795
35.534,34.784
35.537,34.771
35.535,34.756
35.529,34.739
35.517,34.719
35.503,34.696
35.485,34.671
35.466,34.645
35.445,34.618
35.424,34.592
35.402,34.567
35.38,34.542
35.36,34.519
35.341,34.497
35.323,34.476
35.306,34.457
35.29,34.439
35.274,34.422
35.258,34.408
35.242,34.394
35.226,34.383
35.21,34.374
35.193,34.368
35.175,34.364
35.155,34.364
35.133,34.367
35.109,34.375
35.081,34.39
35.052,34.413
35.019,34.447
34.985,34.491
34.948,34.546
34.909,34.614
34.87,34.696
34.831,34.799
34.791,34.927
34.752,35.079
34.713,35.249
34.676,35.43
34.64,35.616
34.606,35.802
34.575,35.985
34.547,36.161
34.522,36.327
34.5,36.481
34.482,36.622
34.469,36.751
34.46,36.865
34.455,36.965
34.455,37.052
34.458,37.126
34.464,37.189
34.474,37.243
34.485,37.288
34.496,37.326
34.507,37.356
34.515,37.38
34.521,37.398
34.522,37.41
34.52,37.415
34.514,37.413
34.504,37.403
34.492,37.387
34.477,37.364
34.459,37.336
34.44,37.301
34.421,37.261
34.401,37.216
34.381,37.167
34.362,37.117
34.346,37.065
34.332,37.013
34.322,36.962
34.318,36.911
34.32,36.86
34.331,36.81
34.352,36.76
34.386,36.712
34.433,36.666
34.495,36.622
34.572,36.58
34.665,36.54
34.773,36.502
34.895,36.466
35.031,36.432
35.177,36.401
35.333,36.373
35.494,36.348
35.657,36.324
35.82,36.304
35.978,36.287
36.129,36.274
36.27,36.264
36.4,36.258
36.517,36.255
36.62,36.254
36.707,36.256
36.779,36.262
36.835,36.27
36.876,36.281
36.901,36.294
36.912,36.307
36.909,36.32
36.894,36.332
36.868,36.344
36.834,36.354
36.793,36.362
36.747,36.367
36.696,36.368
36.643,36.366
36.589,36.361
36.534,36.353
36.48,36.343
36.428,36.331
36.377,36.318
36.329,36.301
36.282,36.283
36.236,36.262
36.19,36.24
36.144,36.217
36.097,36.194
36.048,36.172
35.997,36.149
35.944,36.126
35.89,36.101
35.833,36.075
35.776,36.049
35.719,36.021
35.662,35.993
35.607,35.963
35.554,35.931
35.503,35.9
35.456,35.867
35.412,35.835
35.372,35.803
35.336,35.769
35.305,35.734
35.277,35.697
35.253,35.659
35.235,35.619
35.221,35.577
35.211,35.534
35.207,35.489
35.207,35.443
35.211,35.394
35.219,35.344
35.231,35.293
35.246,35.243
35.265,35.192
35.286,35.142
35.309,35.092
35.332,35.043
35.355,34.996
35.376,34.952
35.396,34.913
35.414,34.878
35.43,34.848
35.441,34.823
35.45,34.803
35.454,34.786
35.454,34.773
35.452,34.763
35.446,34.755
35.437,34.749
35.428,34.744
35.418,34.739
35.409,34.734
35.4,34.729
35.393,34.723
35.386,34.715
35.38,34.704
35.374,34.691
35.369,34.676
35.364,34.659
35.359,34.64
35.353,34.62
35.346,34.597
35.336,34.573
35.325,34.547
35.311,34.52
35.294,34.494
35.274,34.469
35.25,34.444
35.224,34.419
35.194,34.395
35.161,34.371
35.125,34.349
35.088,34.33
35.049,34.312
35.009,34.297
34.969,34.283
34.929,34.271
34.891,34.261
34.853,34.252
34.818,34.243
34.785,34.234
34.755,34.223
34.727,34.212
34.702,34.198
34.679,34.184
34.66,34.169
34.644,34.153
34.631,34.135
34.621,34.116
34.614,34.095
34.611,34.072
34.612,34.049
34.616,34.027
34.622,34.004
34.631,33.982
34.641,33.96
34.654,33.941
34.667,33.924
34.682,33.913
34.695,33.909
34.708,33.913
34.719,33.928
34.726,33.955
34.731,33.996
34.731,34.055
34.728,34.131
34.72,34.225
34.709,34.337
34.693,34.466
34.673,34.612
34.649,34.772
34.622,34.945
34.593,35.129
34.564,35.32
34.535,35.515
34.507,35.712
34.483,35.906
34.462,36.096
34.447,36.278
34.439,36.45
34.439,36.608
34.448,36.751
34.468,36.876
34.5,36.983
34.545,37.072
34.605,37.143
34.679,37.197
34.768,37.234
34.871,37.255
34.988,37.26
35.117,37.253
35.255,37.233
35.401,37.204
35.551,37.166
35.703,37.121
35.853,37.071
35.999,37.017
36.139,36.959
36.27,36.899
36.39,36.838
36.496,36.776
36.589,36.716
36.667,36.657
36.73,36.6
36.778,36.546
36.811,36.495
36.831,36.446
36.838,36.402
36.835,36.361
36.821,36.323
36.798,36.289
36.769,36.256
36.735,36.224
36.697,36.194
36.656,36.166
36.613,36.139
36.569,36.113
36.524,36.087
36.478,36.061
36.432,36.035
36.385,36.01
36.337,35.986
36.287,35.962
36.236,35.94
36.183,35.919
36.129,35.899
36.073,35.881
36.016,35.865
35.958,35.852
35.899,35.842
35.84,35.834
35.781,35.829
35.723,35.827
35.666,35.828
35.611,35.833
35.556,35.842
35.504,35.854
35.454,35.869
35.408,35.887
35.366,35.906
35.329,35.928
35.297,35.949
35.271,35.971
35.251,35.992
35.239,36.012
35.232,36.03
35.232,36.045
35.236,36.058
35.245,36.069
35.257,36.076
35.271,36.079
35.287,36.076
35.304,36.069
35.321,36.056
35.338,36.038
35.355,36.016
35.371,35.988
35.386,35.956
35.399,35.92
35.411,35.88
35.421,35.836
35.428,35.788
35.433,35.738
35.436,35.686
35.435,35.632
35.431,35.576
35.425,35.519
35.418,35.463
35.41,35.408
35.402,35.355
35.394,35.303
35.388,35.254
35.383,35.208
35.38,35.165
35.378,35.125
35.379,35.089
35.381,35.056
35.384,35.027
35.388,35
35.392,34.977
35.395,34.955
35.396,34.934
35.393,34.914
35.386,34.895
35.373,34.877
35.355,34.859
35.331,34.842
35.302,34.824
35.268,34.807
35.229,34.788
35.188,34.769
35.145,34.75
35.101,34.729
35.056,34.707
35.011,34.684
34.965,34.659
34.919,34.635
34.874,34.61
34.831,34.585
34.79,34.561
34.752,34.538
34.716,34.516
34.683,34.495
34.654,34.475
34.627,34.456
34.604,34.44
34.585,34.425
34.568,34.413
34.555,34.403
34.544,34.395
34.535,34.39
34.529,34.385
34.526,34.382
34.524,34.379
34.524,34.377
34.524,34.373
34.525,34.369
34.525,34.364
34.525,34.358
34.524,34.352
34.521,34.345
34.516,34.337
34.509,34.327
34.501,34.315
34.493,34.301
34.484,34.284
34.473,34.266
34.461,34.247
34.447,34.228
34.432,34.211
34.416,34.198
34.4,34.191
34.382,34.192
34.364,34.2
34.346,34.217
34.33,34.245
34.315,34.283
34.302,34.336
34.291,34.405
34.283,34.491
34.276,34.594
34.271,34.714
34.267,34.851
34.266,35.003
34.267,35.169
34.272,35.345
34.281,35.529
34.295,35.717
34.314,35.905
34.34,36.092
34.376,36.274
34.421,36.447
34.477,36.61
34.545,36.758
34.623,36.891
34.712,37.006
34.811,37.104
34.918,37.184
35.032,37.246
35.152,37.289
35.275,37.315
35.398,37.325
35.521,37.32
35.641,37.301
35.756,37.269
35.864,37.226
35.963,37.175
36.053,37.116
36.132,37.053
36.201,36.988
36.26,36.922
36.307,36.856
36.343,36.794
36.369,36.734
36.384,36.678
36.389,36.626
36.385,36.578
36.374,36.533
36.355,36.491
36.33,36.451
36.301,36.414
36.266,36.38
36.227,36.347
36.185,36.315
36.139,36.282
36.092,36.25
36.042,36.216
35.991,36.182
35.94,36.145
35.889,36.108
35.839,36.069
35.791,36.031
35.745,35.993
35.703,35.955
35.663,35.918
35.627,35.883
35.595,35.851
35.565,35.821
35.54,35.795
35.518,35.773
35.5,35.754
35.484,35.74
35.471,35.73
35.46,35.723
35.45,35.72
35.442,35.722
35.435,35.727
35.429,35.737
35.423,35.75
35.417,35.768
35.411,35.789
35.404,35.812
35.396,35.836
35.388,35.86
35.379,35.883
35.37,35.905
35.36,35.925
35.351,35.942
35.342,35.957
35.335,35.969
35.327,35.976
35.321,35.98
35.314,35.978
35.308,35.971
35.303,35.96
35.3,35.943
35.297,35.922
35.296,35.896
35.297,35.864
35.3,35.829
35.304,35.788
35.31,35.745
35.318,35.698
35.328,35.649
35.338,35.598
35.349,35.545
35.36,35.493
35.369,35.441
35.377,35.392
35.381,35.344
35.381,35.3
35.377,35.257
35.366,35.217
35.349,35.179
35.326,35.143
35.297,35.107
35.262,35.073
35.221,35.04
35.175,35.008
35.124,34.978
35.07,34.95
35.012,34.924
34.951,34.898
34.891,34.874
34.83,34.851
34.771,34.827
34.715,34.803
34.663,34.778
34.615,34.752
34.573,34.725
34.535,34.695
34.503,34.664
34.475,34.63
34.453,34.594
34.434,34.556
34.418,34.519
34.404,34.482
34.394,34.447
34.393,34.412
34.402,34.38
34.419,34.35
34.44,34.324
34.461,34.3
34.48,34.28
34.493,34.263
34.497,34.25
34.492,34.24
34.477,34.234
34.451,34.231
34.415,34.231
34.371,34.233
34.32,34.236
34.264,34.24
34.205,34.244
34.145,34.248
34.086,34.251
34.03,34.253
33.978,34.254
33.932,34.253
33.892,34.25
33.861,34.245
33.837,34.237
33.822,34.225
33.814,34.211
33.814,34.193
33.82,34.171
33.831,34.146
33.846,34.119
33.865,34.091
33.885,34.06
33.905,34.029
33.925,33.998
33.945,33.969
33.962,33.944
33.978,33.925
33.991,33.914
34.001,33.912
34.007,33.922
34.009,33.945
34.007,33.983
34.002,34.038
33.993,34.11
33.98,34.2
33.964,34.308
33.947,34.435
33.928,34.58
33.909,34.741
33.891,34.918
33.876,35.107
33.865,35.305
33.86,35.509
33.864,35.717
33.879,35.924
33.906,36.13
33.947,36.329
34.004,36.52
34.075,36.7
34.162,36.867
34.264,37.019
34.38,37.156
34.508,37.276
34.645,37.379
34.789,37.466
34.939,37.535
35.091,37.589
35.243,37.627
35.392,37.65
35.534,37.658
35.668,37.653
35.791,37.637
35.901,37.61
35.997,37.574
36.078,37.532
36.143,37.485
36.192,37.435
36.225,37.384
36.243,37.333
36.246,37.282
36.235,37.232
36.212,37.183
36.179,37.134
36.137,37.086
36.088,37.041
36.032,36.998
35.972,36.957
35.91,36.919
35.847,36.883
35.783,36.848
35.721,36.813
35.661,36.778
35.604,36.743
35.55,36.707
35.5,36.67
35.455,36.632
35.414,36.593
35.376,36.553
35.342,36.513
35.309,36.473
35.279,36.433
35.25,36.394
35.221,36.357
35.193,36.323
35.165,36.292
35.136,36.266
35.107,36.245
35.079,36.23
35.05,36.22
35.022,36.217
34.995,36.219
34.968,36.228
34.941,36.241
34.915,36.257
34.89,36.277
34.867,36.3
34.845,36.324
34.824,36.349
34.806,36.373
34.791,36.397
34.78,36.419
34.774,36.441
34.772,36.46
34.775,36.477
34.784,36.491
34.797,36.5
34.814,36.505
34.835,36.506
34.86,36.502
34.887,36.493
34.916,36.478
34.944,36.458
34.972,36.433
34.999,36.402
35.024,36.368
35.046,36.329
35.065,36.286
35.079,36.239
35.089,36.189
35.094,36.137
35.096,36.083
35.093,36.028
35.086,35.973
35.076,35.918
35.063,35.864
35.048,35.812
35.031,35.762
35.013,35.715
34.994,35.67
34.974,35.628
34.954,35.587
34.934,35.548
34.914,35.51
34.895,35.473
34.878,35.437
34.862,35.402
34.848,35.368
34.834,35.335
34.821,35.303
34.808,35.272
34.795,35.241
34.782,35.21
34.768,35.177
34.752,35.143
34.735,35.108
34.715,35.07
34.694,35.032
34.671,34.992
34.644,34.951
34.616,34.909
34.586,34.866
34.555,34.823
34.523,34.78
34.49,34.739
34.457,34.699
34.423,34.661
34.391,34.625
34.36,34.592
34.329,34.561
34.301,34.534
34.275,34.51
34.251,34.489
34.23,34.471
34.212,34.456
34.197,34.444
34.185,34.434
34.177,34.426
34.172,34.42
34.169,34.417
34.17,34.417
34.172,34.42
34.175,34.426
34.18,34.433
34.185,34.442
34.189,34.449
34.193,34.453
34.195,34.454
34.196,34.451
34.195,34.444
34.192,34.431
34.186,34.414
34.177,34.392
34.167,34.365
34.155,34.336
34.142,34.304
34.127,34.27
34.112,34.236
34.097,34.201
34.08,34.167
34.064,34.134
34.048,34.103
34.032,34.074
34.017,34.048
34.003,34.025
33.991,34.004
33.983,33.985
33.978,33.969
33.977,33.954
33.983,33.942
33.996,33.933
34.018,33.928
34.05,33.928
34.092,33.935
34.148,33.95
34.216,33.975
34.296,34.013
34.39,34.065
34.495,34.133
34.61,34.217
34.733,34.318
34.864,34.436
34.999,34.571
35.136,34.724
35.273,34.892
35.409,35.075
35.541,35.269
35.668,35.472
35.786,35.681
35.894,35.893
35.992,36.104
36.078,36.312
36.152,36.515
36.215,36.711
36.267,36.897
36.307,37.072
36.337,37.235
36.357,37.382
36.369,37.516
36.372,37.634
36.369,37.737
36.358,37.824
36.342,37.896
36.32,37.953
36.294,37.995
36.264,38.025
36.23,38.041
36.192,38.047
36.152,38.042
36.11,38.027
36.066,38.005
36.02,37.975
35.973,37.939
35.925,37.898
35.877,37.852
35.828,37.803
35.778,37.751
35.729,37.697
35.679,37.641
35.629,37.584
35.58,37.526
35.532,37.469
35.487,37.412
35.443,37.357
35.402,37.303
35.363,37.25
35.327,37.199
35.295,37.148
35.266,37.098
35.241,37.049
35.22,37.002
35.203,36.955
35.189,36.909
35.179,36.866
35.173,36.825
35.17,36.788
35.169,36.754
35.172,36.723
35.176,36.696
35.183,36.673
35.192,36.653
35.202,36.637
35.213,36.623
35.224,36.613
35.236,36.606
35.247,36.603
35.257,36.603
35.265,36.607
35.273,36.613
35.278,36.621
35.282,36.631
35.283,36.642
35.283,36.652
35.281,36.661
35.279,36.669
35.277,36.673
35.274,36.674
35.272,36.672
35.269,36.666
35.267,36.657
35.265,36.645
35.264,36.629
35.263,36.609
35.263,36.587
35.263,36.561
35.264,36.533
35.265,36.502
35.266,36.469
35.266,36.433
35.265,36.395
35.261,36.355
35.255,36.314
35.245,36.271
35.232,36.228
35.214,36.185
35.192,36.141
35.166,36.097
35.136,36.053
35.103,36.009
35.067,35.966
35.029,35.923
34.989,35.881
34.948,35.839
34.907,35.797
34.866,35.756
34.824,35.714
34.783,35.673
34.743,35.631
34.704,35.589
34.667,35.547
34.634,35.504
34.603,35.461
34.577,35.416
34.553,35.371
34.534,35.323
34.517,35.273
34.503,35.223
34.493,35.171
34.486,35.119
34.481,35.066
34.478,35.014
34.476,34.963
34.474,34.913
34.473,34.866
34.472,34.821
34.47,34.779
34.467,34.739
34.461,34.703
34.453,34.67
34.443,34.64
34.43,34.613
34.415,34.589
34.398,34.566
34.38,34.545
34.361,34.525
34.342,34.508
34.323,34.492
34.306,34.478
34.29,34.466
34.275,34.454
34.262,34.443
34.251,34.433
34.242,34.422
34.237,34.411
34.234,34.399
34.234,34.385
34.237,34.37
34.242,34.354
34.249,34.335
34.258,34.316
34.268,34.294
34.279,34.271
34.289,34.246
34.299,34.22
34.308,34.195
34.315,34.169
34.321,34.144
34.325,34.12
34.325,34.097
34.322,34.075
34.316,34.055
34.308,34.037
34.297,34.021
34.285,34.007
34.272,33.994
34.26,33.983
34.25,33.972
34.243,33.963
34.242,33.954
34.249,33.944
34.265,33.933
34.292,33.92
34.332,33.907
34.386,33.893
34.455,33.878
34.54,33.861
34.642,33.843
34.758,33.822
34.888,33.8
35.03,33.775
35.182,33.748
35.342,33.72
35.507,33.691
35.674,33.661
35.838,33.63
35.997,33.598
36.146,33.566
36.284,33.533
36.409,33.502
36.519,33.474
36.613,33.449
36.689,33.431
36.748,33.419
36.789,33.418
36.814,33.427
36.823,33.451
36.819,33.49
36.801,33.546
36.773,33.623
36.735,33.72
36.689,33.84
36.637,33.982
36.58,34.147
36.519,34.334
36.455,34.541
36.391,34.764
36.327,35.002
36.264,35.252
36.202,35.51
36.143,35.771
36.086,36.032
36.034,36.288
35.986,36.537
35.943,36.774
35.902,36.998
35.865,37.206
35.831,37.395
35.799,37.564
35.77,37.711
35.74,37.836
35.71,37.939
35.679,38.021
35.645,38.083
35.61,38.126
35.574,38.151
35.536,38.161
35.496,38.155
35.455,38.137
35.413,38.107
35.371,38.067
35.33,38.02
35.291,37.968
35.254,37.912
35.221,37.853
35.193,37.793
35.171,37.733
35.155,37.674
35.146,37.618
35.145,37.566
35.151,37.517
35.163,37.472
35.181,37.43
35.204,37.391
35.23,37.355
35.259,37.322
35.29,37.291
35.322,37.261
35.353,37.23
35.384,37.197
35.412,37.163
35.437,37.126
35.458,37.087
35.474,37.047
35.486,37.005
35.493,36.961
35.495,36.917
35.493,36.872
35.485,36.828
35.474,36.784
35.46,36.742
35.443,36.702
35.425,36.666
35.405,36.634
35.385,36.605
35.364,36.58
35.343,36.56
35.324,36.544
35.305,36.532
35.288,36.525
35.272,36.521
35.257,36.519
35.242,36.52
35.228,36.523
35.215,36.528
35.203,36.536
35.19,36.547
35.176,36.558
35.16,36.569
35.142,36.58
35.122,36.59
35.099,36.599
35.073,36.607
35.044,36.612
35.012,36.613
34.978,36.61
34.942,36.601
34.905,36.585
34.867,36.563
34.829,36.536
34.791,36.504
34.754,36.467
34.719,36.426
34.687,36.379
34.657,36.329
34.63,36.276
34.606,36.222
34.585,36.167
34.568,36.113
34.554,36.06
34.545,36.008
34.54,35.958
34.536,35.91
34.535,35.862
34.535,35.816
34.537,35.771
34.539,35.727
34.543,35.681
34.549,35.634
34.554,35.586
34.559,35.535
34.564,35.484
34.568,35.432
34.571,35.38
34.572,35.328
34.57,35.277
34.565,35.227
34.556,35.18
34.545,35.134
34.531,35.091
34.515,35.048
34.495,35.006
34.473,34.965
34.45,34.924
34.426,34.884
34.403,34.845
34.381,34.806
34.36,34.767
34.341,34.726
34.325,34.685
34.31,34.644
34.299,34.604
34.29,34.565
34.285,34.528
34.282,34.493
34.28,34.461
34.281,34.431
34.282,34.404
34.285,34.38
34.287,34.36
34.289,34.342
34.288,34.325
34.286,34.311
34.281,34.299
34.273,34.289
34.263,34.282
34.249,34.277
34.233,34.273
34.214,34.269
34.192,34.266
34.169,34.263
34.144,34.261
34.121,34.258
34.099,34.254
34.081,34.248
34.067,34.239
34.061,34.227
34.062,34.213
34.074,34.196
34.097,34.177
34.132,34.156
34.182,34.131
34.247,34.104
34.329,34.076
34.427,34.047
34.54,34.017
34.667,33.988
34.806,33.958
34.956,33.93
35.115,33.902
35.279,33.876
35.447,33.853
35.614,33.831
35.778,33.812
35.935,33.793
36.083,33.775
36.22,33.757
36.343,33.74
36.452,33.723
36.545,33.706
36.623,33.69
36.685,33.675
36.731,33.663
36.762,33.654
36.777,33.651
36.779,33.655
36.767,33.668
36.745,33.692
36.713,33.728
36.673,33.779
36.628,33.846
36.578,33.931
36.526,34.035
36.473,34.159
36.419,34.303
36.367,34.465
36.315,34.646
36.266,34.843
36.219,35.054
36.174,35.276
36.134,35.506
36.097,35.74
36.064,35.973
36.032,36.203
36.003,36.427
35.975,36.641
35.948,36.843
35.92,37.031
35.891,37.203
35.861,37.358
35.835,37.494
35.816,37.61
35.804,37.707
35.793,37.785
35.782,37.845
35.773,37.887
35.764,37.913
35.755,37.925
35.742,37.922
35.723,37.908
35.699,37.883
35.669,37.849
35.633,37.807
35.594,37.756
35.554,37.698
35.512,37.635
35.472,37.567
35.436,37.496
35.404,37.424
35.378,37.35
35.36,37.276
35.35,37.201
35.346,37.128
35.349,37.055
35.358,36.985
35.371,36.919
35.387,36.855
35.405,36.794
35.423,36.736
35.441,36.68
35.457,36.626
35.47,36.575
35.481,36.527
35.488,36.48
35.492,36.436
35.49,36.395
35.484,36.357
35.473,36.322
35.458,36.29
35.44,36.262
35.418,36.237
35.393,36.216
35.366,36.199
35.338,36.185
35.31,36.175
35.283,36.168
35.257,36.163
35.233,36.161
35.21,36.162
35.187,36.164
35.166,36.166
35.145,36.169
35.125,36.172
35.104,36.174
35.082,36.175
35.06,36.176
35.037,36.175
35.015,36.173
34.992,36.169
34.968,36.164
34.943,36.158
34.917,36.152
34.889,36.145
34.858,36.137
34.824,36.128
34.788,36.118
34.749,36.108
34.708,36.098
34.666,36.087
34.624,36.075
34.584,36.061
34.547,36.045
34.512,36.026
34.479,36.004
34.449,35.979
34.422,35.949
34.398,35.916
34.377,35.879
34.36,35.839
34.345,35.795
34.332,35.75
34.321,35.703
34.313,35.654
34.308,35.605
34.304,35.554
34.302,35.502
34.3,35.448
34.299,35.394
34.298,35.338
34.296,35.282
34.293,35.224
34.289,35.166
34.283,35.107
34.276,35.047
34.268,34.986
34.259,34.925
34.249,34.865
34.239,34.806
34.229,34.748
34.217,34.692
34.206,34.638
34.194,34.587
34.182,34.539
34.17,34.496
34.158,34.458
34.147,34.424
34.136,34.394
34.127,34.369
34.119,34.348
34.113,34.33
34.11,34.315
34.108,34.302
34.107,34.291
34.107,34.282
34.108,34.272
34.109,34.263
34.11,34.255
34.111,34.246
34.111,34.238
34.11,34.228
34.109,34.218
34.107,34.206
34.105,34.194
34.103,34.181
34.101,34.168
34.099,34.153
34.098,34.138
34.099,34.122
34.103,34.104
34.112,34.085
34.127,34.065
34.151,34.045
34.185,34.025
34.232,34.005
34.292,33.985
34.367,33.965
34.455,33.946
34.556,33.927
34.67,33.91
34.795,33.894
34.931,33.88
35.073,33.868
35.221,33.86
35.372,33.853
35.523,33.847
35.672,33.843
35.817,33.84
35.957,33.837
36.088,33.834
36.21,33.83
36.321,33.824
36.419,33.816
36.503,33.806
36.572,33.793
36.626,33.779
36.663,33.765
36.685,33.751
36.692,33.739
36.684,33.732
36.663,33.731
36.63,33.74
36.586,33.761
36.534,33.797
36.476,33.85
36.412,33.922
36.345,34.014
36.277,34.126
36.208,34.26
36.139,34.414
36.072,34.588
36.007,34.78
35.946,34.988
35.89,35.208
35.838,35.439
35.791,35.675
35.748,35.913
35.71,36.149
35.677,36.38
35.648,36.601
35.622,36.809
35.598,37.001
35.575,37.177
35.552,37.334
35.529,37.47
35.505,37.586
35.479,37.68
35.451,37.754
35.422,37.807
35.39,37.841
35.357,37.855
35.323,37.85
35.288,37.829
35.254,37.792
35.221,37.742
35.189,37.681
35.16,37.61
35.135,37.533
35.112,37.451
35.092,37.367
35.076,37.281
35.065,37.194
35.06,37.106
35.059,37.02
35.064,36.935
35.073,36.854
35.087,36.776
35.107,36.701
35.13,36.631
35.158,36.566
35.188,36.506
35.219,36.45
35.251,36.399
35.282,36.351
35.311,36.307
35.338,36.267
35.361,36.229
35.379,36.195
35.392,36.162
35.401,36.131
35.404,36.103
35.401,36.076
35.394,36.052
35.381,36.03
35.364,36.01
35.343,35.993
35.319,35.977
35.293,35.963
35.264,35.952
35.233,35.944
35.2,35.938
35.168,35.934
35.135,35.931
35.103,35.931
35.073,35.933
35.044,35.938
35.017,35.943
34.993,35.95
34.972,35.957
34.954,35.965
34.938,35.974
34.924,35.982
34.91,35.99
34.896,35.999
34.882,36.006
34.867,36.013
34.85,36.018
34.831,36.022
34.81,36.023
34.786,36.021
34.759,36.018
34.731,36.012
34.7,36.003
34.667,35.991
34.633,35.977
34.598,35.959
34.562,35.938
34.528,35.914
34.495,35.886
34.463,35.854
34.434,35.82
34.407,35.782
34.384,35.742
34.365,35.699
34.351,35.653
34.34,35.604
34.332,35.553
34.327,35.499
34.324,35.441
34.324,35.381
34.326,35.317
34.329,35.252
34.333,35.185
34.336,35.118
34.339,35.051
34.341,34.984
34.342,34.918
34.343,34.853
34.342,34.791
34.34,34.732
34.337,34.677
34.332,34.627
34.327,34.58
34.321,34.537
34.314,34.498
34.306,34.464
34.295,34.433
34.284,34.405
34.271,34.38
34.258,34.358
34.244,34.339
34.23,34.321
34.217,34.305
34.204,34.29
34.193,34.275
34.183,34.26
34.175,34.245
34.168,34.23
34.163,34.214
34.159,34.198
34.156,34.182
34.154,34.165
34.155,34.149
34.157,34.133
34.16,34.116
34.165,34.1
34.17,34.083
34.177,34.065
34.185,34.048
34.195,34.031
34.208,34.015
34.224,34
34.247,33.987
34.276,33.975
34.314,33.965
34.363,33.956
34.424,33.948
34.497,33.942
34.582,33.937
34.679,33.933
34.788,33.929
34.907,33.926
35.035,33.924
35.17,33.923
35.31,33.921
35.454,33.919
35.601,33.914
35.747,33.906
35.892,33.894
36.033,33.88
36.168,33.862
36.295,33.843
36.412,33.822
36.519,33.801
36.612,33.782
36.691,33.765
36.757,33.752
36.808,33.746
36.845,33.748
36.867,33.762
36.876,33.789
36.87,33.832
36.851,33.892
36.82,33.971
36.779,34.071
36.728,34.191
36.669,34.332
36.604,34.494
36.535,34.676
36.463,34.877
36.39,35.094
36.316,35.325
36.244,35.565
36.174,35.811
36.107,36.06
36.044,36.307
35.987,36.547
35.935,36.778
35.89,36.996
35.85,37.199
35.816,37.386
35.787,37.554
35.763,37.703
35.743,37.831
35.725,37.938
35.708,38.024
35.692,38.087
35.675,38.129
35.658,38.151
35.639,38.152
35.618,38.136
35.595,38.104
35.569,38.057
35.542,37.997
35.513,37.927
35.482,37.848
35.45,37.765
35.417,37.679
35.386,37.593
35.355,37.508
35.328,37.422
35.303,37.336
35.283,37.251
35.268,37.168
35.258,37.089
35.254,37.015
35.257,36.947
35.265,36.884
35.278,36.827
35.296,36.775
35.318,36.726
35.342,36.682
35.37,36.639
35.399,36.598
35.431,36.557
35.463,36.517
35.495,36.477
35.525,36.437
35.553,36.397
35.577,36.358
35.597,36.321
35.612,36.286
35.622,36.253
35.627,36.224
35.626,36.197
35.621,36.174
35.611,36.154
35.596,36.137
35.576,36.125
35.552,36.117
35.526,36.112
35.496,36.11
35.465,36.111
35.431,36.113
35.398,36.118
35.365,36.125
35.333,36.133
35.302,36.142
35.272,36.152
35.243,36.162
35.216,36.173
35.189,36.183
35.165,36.192
35.142,36.2
35.121,36.206
35.102,36.21
35.083,36.212
35.064,36.212
35.044,36.208
35.023,36.2
35,36.19
34.975,36.176
34.949,36.159
34.92,36.139
34.89,36.114
34.859,36.086
34.827,36.054
34.794,36.018
34.76,35.978
34.725,35.935
34.691,35.888
34.657,35.839
34.625,35.786
34.594,35.732
34.566,35.676
34.539,35.619
34.516,35.56
34.495,35.498
34.478,35.435
34.464,35.369
34.453,35.302
34.443,35.234
34.436,35.165
34.431,35.097
34.427,35.029
34.425,34.963
34.425,34.898
34.425,34.836
34.426,34.778
34.428,34.725
34.429,34.676
34.429,34.633
34.428,34.594
34.425,34.561
34.42,34.532
34.412,34.507
34.402,34.485
34.391,34.465
34.378,34.447
34.364,34.43
34.349,34.414
34.333,34.399
34.316,34.385
34.299,34.37
34.283,34.355
34.268,34.339
34.254,34.32
34.243,34.3
34.234,34.278
34.228,34.253
34.224,34.227
34.222,34.2
34.221,34.171
34.223,34.141
34.225,34.111
34.229,34.08
34.233,34.051
34.238,34.023
34.242,33.997
34.245,33.974
34.249,33.953
34.251,33.934
34.252,33.919
34.251,33.906
34.248,33.897
34.243,33.891
34.235,33.887
34.226,33.885
34.218,33.884
34.21,33.885
34.205,33.887
34.206,33.889
34.213,33.892
34.228,33.893
34.254,33.893
34.291,33.893
34.341,33.891
34.406,33.888
34.486,33.882
34.583,33.872
34.697,33.86
34.826,33.845
34.97,33.828
35.126,33.807
35.292,33.784
35.466,33.758
35.646,33.728
35.829,33.695
36.012,33.659
36.191,33.621
36.366,33.583
36.531,33.545
36.684,33.507
36.823,33.47
36.946,33.434
37.051,33.4
37.138,33.369
37.206,33.342
37.256,33.321
37.287,33.305
37.302,33.296
37.302,33.296
37.287,33.307
37.26,33.331
37.221,33.37
37.173,33.426
37.117,33.5
37.056,33.594
36.991,33.711
36.925,33.85
36.859,34.013
36.794,34.199
36.73,34.407
36.67,34.636
36.612,34.881
36.558,35.14
36.508,35.41
36.461,35.688
36.418,35.968
36.377,36.248
36.34,36.522
36.305,36.788
36.273,37.042
36.241,37.28
36.209,37.501
36.178,37.702
36.146,37.884
36.114,38.044
36.082,38.181
36.051,38.296
36.02,38.389
35.99,38.46
35.96,38.511
35.932,38.544
35.904,38.56
35.877,38.561
35.851,38.548
35.826,38.523
35.804,38.488
35.784,38.443
35.768,38.392
35.755,38.334
35.745,38.273
35.739,38.21
35.736,38.144
35.737,38.077
35.742,38.011
35.749,37.945
35.76,37.881
35.772,37.819
35.787,37.759
35.803,37.701
35.819,37.644
35.835,37.587
35.849,37.532
35.861,37.476
35.871,37.421
35.879,37.365
35.884,37.309
35.887,37.253
35.887,37.196
35.885,37.139
35.88,37.082
35.873,37.025
35.863,36.969
35.851,36.916
35.837,36.864
35.821,36.814
35.804,36.767
35.787,36.724
35.769,36.686
35.752,36.652
35.734,36.625
35.715,36.604
35.696,36.589
35.677,36.579
35.657,36.573
35.636,36.572
35.614,36.575
35.591,36.581
35.568,36.59
35.544,36.602
35.519,36.615
35.492,36.629
35.465,36.644
35.436,36.659
35.406,36.673
35.374,36.685
35.34,36.695
35.305,36.702
35.269,36.704
35.232,36.701
35.194,36.693
35.157,36.68
35.121,36.663
35.085,36.642
35.052,36.615
35.02,36.583
34.99,36.545
34.962,36.501
34.935,36.451
34.91,36.397
34.886,36.344
34.861,36.296
34.838,36.257
34.816,36.225
34.796,36.2
34.779,36.176
34.762,36.15
34.743,36.119
34.724,36.08
34.704,36.033
34.683,35.979
34.661,35.918
34.64,35.85
34.619,35.777
34.599,35.7
34.579,35.622
34.561,35.542
34.545,35.462
34.53,35.383
34.516,35.304
34.501,35.228
34.487,35.154
34.473,35.085
34.459,35.019
34.445,34.956
34.43,34.896
34.417,34.84
34.404,34.787
34.393,34.737
34.384,34.69
34.378,34.646
34.374,34.605
34.372,34.565
34.374,34.527
34.378,34.489
34.384,34.454
34.393,34.42
34.405,34.388
34.418,34.357
34.432,34.327
34.446,34.297
34.459,34.269
34.47,34.242
34.48,34.217
34.487,34.194
34.491,34.173
34.492,34.155
34.491,34.139
34.486,34.126
34.477,34.116
34.466,34.11
34.454,34.106
34.439,34.103
34.422,34.103
34.405,34.104
34.387,34.106
34.368,34.11
34.35,34.114
34.333,34.119
34.317,34.121
34.302,34.122
34.289,34.121
34.279,34.116
34.272,34.109
34.269,34.099
34.272,34.085
34.281,34.068
34.299,34.047
34.328,34.023
34.37,33.996
34.424,33.966
34.494,33.935
34.578,33.901
34.679,33.867
34.795,33.832
34.926,33.797
35.071,33.763
35.229,33.73
35.398,33.697
35.575,33.667
35.758,33.637
35.944,33.61
36.13,33.585
36.314,33.563
36.494,33.544
36.667,33.532
36.832,33.526
36.987,33.527
37.131,33.537
37.262,33.558
37.38,33.592
37.484,33.64
37.573,33.704
37.648,33.785
37.708,33.884
37.753,34.003
37.784,34.142
37.801,34.3
37.806,34.477
37.799,34.673
37.781,34.885
37.753,35.11
37.717,35.345
37.672,35.588
37.62,35.837
37.563,36.088
37.501,36.339
37.435,36.586
37.366,36.827
37.295,37.056
37.222,37.273
37.149,37.474
37.075,37.657
37.004,37.821
36.934,37.965
36.868,38.089
36.806,38.194
36.749,38.278
36.698,38.343
36.651,38.388
36.61,38.416
36.575,38.427
36.544,38.424
36.518,38.406
36.495,38.376
36.476,38.335
36.459,38.284
36.443,38.224
36.428,38.159
36.413,38.088
36.398,38.014
36.381,37.938
36.363,37.861
36.343,37.783
36.322,37.705
36.3,37.627
36.277,37.55
36.254,37.476
36.23,37.404
36.206,37.334
36.183,37.268
36.16,37.203
36.139,37.141
36.121,37.081
36.106,37.022
36.095,36.966
36.087,36.911
36.084,36.857
36.085,36.803
36.091,36.75
36.101,36.697
36.115,36.645
36.131,36.596
36.15,36.548
36.171,36.504
36.193,36.463
36.215,36.426
36.237,36.393
36.257,36.365
36.276,36.341
36.292,36.322
36.303,36.306
36.309,36.296
36.31,36.289
36.304,36.285
36.292,36.285
36.274,36.288
36.25,36.295
36.22,36.303
36.186,36.312
36.146,36.322
36.103,36.331
36.056,36.338
36.005,36.343
35.954,36.345
35.901,36.344
35.85,36.34
35.8,36.331
35.752,36.317
35.708,36.299
35.667,36.275
35.629,36.246
35.594,36.213
35.562,36.175
35.532,36.133
35.505,36.087
35.479,36.037
35.455,35.984
35.432,35.929
35.408,35.873
35.384,35.817
35.358,35.761
35.33,35.705
35.301,35.651
35.268,35.597
35.233,35.544
35.196,35.492
35.156,35.44
35.114,35.388
35.07,35.337
35.025,35.286
34.98,35.236
34.935,35.186
34.891,35.137
34.849,35.088
34.81,35.039
34.775,34.989
34.743,34.939
34.715,34.887
34.69,34.831
34.669,34.771
34.652,34.706
34.639,34.637
34.628,34.564
34.62,34.491
34.614,34.418
34.609,34.348
34.605,34.282
34.6,34.221
34.595,34.165
34.589,34.116
34.581,34.072
34.572,34.034
34.561,34.002
34.548,33.975
34.534,33.953
34.519,33.935
34.503,33.921
34.486,33.911
34.469,33.902
34.452,33.897
34.435,33.892
34.42,33.89
34.405,33.888
34.391,33.888
34.377,33.889
34.363,33.892
34.348,33.894
34.334,33.897
34.319,33.899
34.305,33.9
34.29,33.899
34.276,33.896
34.263,33.889
34.251,33.88
34.241,33.867
34.234,33.852
34.229,33.834
34.226,33.813
34.226,33.79
34.227,33.765
34.23,33.738
34.236,33.709
34.243,33.68
34.254,33.649
34.269,33.62
34.289,33.59
34.316,33.562
34.352,33.534
34.398,33.507
34.456,33.48
34.527,33.454
34.612,33.43
34.712,33.407
34.828,33.387
34.958,33.37
35.103,33.355
35.262,33.343
35.433,33.332
35.614,33.324
35.802,33.319
35.994,33.317
36.187,33.32
36.379,33.328
36.565,33.344
36.745,33.37
36.914,33.409
37.072,33.461
37.216,33.53
37.344,33.617
37.457,33.723
37.551,33.848
37.626,33.992
37.683,34.155
37.721,34.335
37.74,34.531
37.742,34.741
37.727,34.963
37.697,35.192
37.653,35.426
37.597,35.661
37.531,35.896
37.457,36.126
37.376,36.349
37.29,36.563
37.202,36.765
37.113,36.952
37.024,37.124
36.939,37.278
36.856,37.414
36.778,37.529
36.704,37.625
36.636,37.702
36.572,37.76
36.514,37.8
36.461,37.822
36.413,37.829
36.37,37.821
36.332,37.8
36.297,37.767
36.264,37.722
36.234,37.668
36.204,37.606
36.175,37.538
36.145,37.464
36.113,37.387
36.08,37.307
36.045,37.226
36.009,37.144
35.972,37.063
35.934,36.982
35.896,36.902
35.859,36.823
35.823,36.745
35.789,36.67
35.758,36.596
35.731,36.523
35.707,36.452
35.689,36.381
35.676,36.312
35.667,36.244
35.665,36.177
35.668,36.113
35.677,36.052
35.691,35.994
35.71,35.94
35.732,35.891
35.756,35.848
35.783,35.811
35.811,35.782
35.838,35.759
35.864,35.743
35.888,35.734
35.907,35.731
35.923,35.733
35.934,35.739
35.941,35.75
35.942,35.764
35.939,35.78
35.931,35.798
35.92,35.818
35.904,35.838
35.884,35.857
35.861,35.877
35.835,35.896
35.806,35.914
35.775,35.93
35.743,35.945
35.71,35.956
35.677,35.965
35.645,35.971
35.615,35.974
35.587,35.972
35.562,35.967
35.538,35.958
35.516,35.944
35.496,35.926
35.477,35.905
35.459,35.88
35.442,35.852
35.423,35.821
35.403,35.787
35.381,35.75
35.354,35.711
35.324,35.669
35.29,35.625
35.252,35.578
35.21,35.528
35.165,35.475
35.117,35.422
35.066,35.367
35.014,35.311
34.961,35.257
34.907,35.203
34.854,35.149
34.803,35.097
34.754,35.045
34.709,34.992
34.669,34.939
34.633,34.885
34.602,34.83
34.576,34.774
34.554,34.716
34.537,34.658
34.524,34.599
34.514,34.54
34.507,34.48
34.502,34.422
34.499,34.364
34.497,34.308
34.496,34.253
34.495,34.201
34.494,34.151
34.492,34.105
34.488,34.062
34.482,34.024
34.473,33.991
34.462,33.962
34.449,33.939
34.434,33.925
34.417,33.919
34.399,33.922
34.38,33.932
34.361,33.946
34.341,33.961
34.321,33.975
34.301,33.986
34.281,33.994
34.262,33.997
34.244,33.996
34.229,33.991
34.217,33.982
34.208,33.97
34.203,33.954
34.2,33.935
34.201,33.913
34.205,33.888
34.212,33.861
34.221,33.833
34.233,33.803
34.247,33.773
34.263,33.742
34.282,33.711
34.305,33.68
34.331,33.648
34.363,33.616
34.401,33.585
34.447,33.556
34.504,33.528
34.572,33.503
34.652,33.482
34.746,33.465
34.854,33.455
34.975,33.452
35.109,33.455
35.254,33.466
35.409,33.486
35.574,33.515
35.745,33.557
35.92,33.613
36.097,33.684
36.273,33.773
36.447,33.881
36.614,34.008
36.773,34.155
36.923,34.321
37.061,34.505
37.185,34.704
37.295,34.917
37.389,35.14
37.466,35.372
37.527,35.608
37.571,35.847
37.599,36.085
37.61,36.319
37.606,36.547
37.587,36.763
37.554,36.964
37.508,37.148
37.453,37.313
37.388,37.456
37.316,37.579
37.237,37.681
37.153,37.763
37.065,37.825
36.974,37.867
36.882,37.892
36.788,37.901
36.694,37.895
36.602,37.876
36.514,37.845
36.43,37.805
36.35,37.755
36.269,37.699
36.188,37.637
36.111,37.57
36.044,37.5
35.988,37.427
35.944,37.354
35.909,37.28
35.883,37.206
35.862,37.131
35.845,37.057
35.829,36.984
35.813,36.912
35.794,36.842
35.772,36.773
35.745,36.705
35.716,36.639
35.683,36.574
35.649,36.51
35.614,36.446
35.579,36.384
35.545,36.321
35.512,36.26
35.483,36.199
35.459,36.139
35.439,36.079
35.425,36.02
35.417,35.963
35.417,35.909
35.424,35.859
35.437,35.814
35.458,35.774
35.485,35.741
35.518,35.714
35.555,35.695
35.596,35.684
35.638,35.681
35.681,35.686
35.722,35.698
35.762,35.717
35.799,35.742
35.831,35.771
35.86,35.805
35.882,35.842
35.899,35.881
35.909,35.922
35.912,35.962
35.909,36
35.898,36.037
35.879,36.07
35.854,36.1
35.823,36.126
35.788,36.146
35.749,36.16
35.708,36.167
35.666,36.165
35.624,36.154
35.582,36.136
35.542,36.109
35.503,36.076
35.467,36.037
35.432,35.992
35.399,35.942
35.369,35.886
35.34,35.826
35.315,35.762
35.291,35.695
35.269,35.627
35.248,35.556
35.228,35.484
35.207,35.412
35.185,35.341
35.161,35.271
35.135,35.204
35.106,35.138
35.074,35.076
35.039,35.016
35.001,34.959
34.961,34.905
34.917,34.854
34.871,34.806
34.823,34.762
34.774,34.72
34.726,34.682
34.678,34.646
34.633,34.612
34.591,34.579
34.553,34.546
34.519,34.515
34.49,34.483
34.465,34.45
34.445,34.417
34.429,34.383
34.416,34.347
34.408,34.311
34.402,34.274
34.399,34.237
34.398,34.199
34.398,34.159
34.398,34.118
34.399,34.078
34.399,34.039
34.397,34.002
34.392,33.968
34.385,33.936
34.376,33.908
34.364,33.882
34.351,33.86
34.334,33.843
34.316,33.83
34.296,33.821
34.274,33.817
34.252,33.816
34.231,33.818
34.209,33.823
34.188,33.83
34.169,33.839
34.151,33.849
34.135,33.858
34.121,33.864
34.111,33.869
34.103,33.871
34.099,33.87
34.101,33.867
34.107,33.859
34.121,33.846
34.144,33.829
34.177,33.808
34.222,33.785
34.282,33.759
34.356,33.733
34.445,33.706
34.549,33.68
34.67,33.656
34.806,33.636
34.956,33.623
35.119,33.619
35.292,33.627
35.474,33.647
35.662,33.678
35.854,33.719
36.047,33.773
36.241,33.843
36.431,33.933
36.616,34.047
36.792,34.187
36.959,34.354
37.113,34.549
37.255,34.769
37.383,35.014
37.496,35.28
37.594,35.562
37.675,35.857
37.741,36.158
37.79,36.46
37.824,36.756
37.842,37.043
37.845,37.316
37.833,37.57
37.809,37.801
37.773,38.007
37.726,38.184
37.669,38.332
37.603,38.45
37.53,38.538
37.451,38.598
37.368,38.632
37.281,38.643
37.19,38.633
37.098,38.604
37.005,38.557
36.913,38.496
36.822,38.422
36.735,38.339
36.65,38.25
36.569,38.157
36.493,38.06
36.421,37.963
36.355,37.865
36.295,37.77
36.239,37.678
36.187,37.591
36.14,37.509
36.097,37.433
36.058,37.364
36.022,37.3
35.988,37.241
35.956,37.186
35.924,37.135
35.894,37.087
35.864,37.042
35.834,36.998
35.805,36.956
35.776,36.916
35.748,36.875
35.723,36.836
35.699,36.798
35.679,36.762
35.662,36.728
35.648,36.695
35.64,36.662
35.636,36.629
35.638,36.596
35.644,36.564
35.654,36.532
35.669,36.501
35.687,36.472
35.708,36.445
35.732,36.421
35.758,36.399
35.785,36.379
35.812,36.362
35.839,36.348
35.866,36.336
35.891,36.327
35.915,36.321
35.936,36.318
35.954,36.317
35.969,36.318
35.98,36.321
35.986,36.324
35.986,36.328
35.981,36.333
35.97,36.337
35.953,36.34
35.931,36.341
35.903,36.342
35.871,36.34
35.835,36.336
35.797,36.33
35.756,36.321
35.714,36.308
35.671,36.292
35.628,36.271
35.585,36.246
35.542,36.217
35.5,36.183
35.459,36.145
35.419,36.101
35.38,36.052
35.342,35.997
35.305,35.937
35.27,35.871
35.236,35.802
35.203,35.729
35.171,35.654
35.141,35.576
35.11,35.497
35.08,35.417
35.049,35.336
35.016,35.255
34.982,35.175
34.946,35.098
34.909,35.022
34.87,34.949
34.831,34.878
34.79,34.811
34.748,34.748
34.705,34.688
34.662,34.633
34.619,34.581
34.577,34.533
34.536,34.489
34.496,34.448
34.458,34.411
34.422,34.377
34.388,34.346
34.359,34.318
34.333,34.293
34.31,34.271
34.292,34.25
34.276,34.23
34.265,34.212
34.258,34.194
34.255,34.176
34.254,34.159
34.256,34.142
34.258,34.124
34.261,34.105
34.264,34.086
34.266,34.067
34.266,34.047
34.263,34.026
34.258,34.005
34.251,33.984
34.243,33.963
34.234,33.942
34.224,33.923
34.213,33.904
34.2,33.885
34.186,33.865
34.171,33.846
34.155,33.829
34.139,33.812
34.122,33.798
34.105,33.784
34.088,33.773
34.073,33.763
34.06,33.756
34.049,33.751
34.041,33.747
34.036,33.745
34.033,33.743
34.033,33.742
34.035,33.74
34.042,33.738
34.053,33.733
34.069,33.726
34.092,33.716
34.124,33.704
34.165,33.688
34.218,33.67
34.285,33.65
34.368,33.628
34.466,33.604
34.581,33.575
34.714,33.54
34.863,33.498
35.028,33.453
35.208,33.411
35.399,33.377
35.601,33.357
35.81,33.36
36.023,33.389
36.236,33.45
36.448,33.545
36.655,33.676
36.856,33.843
37.049,34.045
37.231,34.278
37.402,34.54
37.559,34.827
37.701,35.132
37.827,35.45
37.936,35.777
38.028,36.106
38.102,36.434
38.159,36.754
38.197,37.062
38.218,37.355
38.222,37.629
38.211,37.882
38.183,38.112
38.142,38.316
38.088,38.496
38.023,38.649
37.948,38.777
37.863,38.878
37.772,38.955
37.676,39.007
37.578,39.035
37.478,39.042
37.379,39.03
37.282,38.999
37.187,38.953
37.098,38.894
37.013,38.824
36.935,38.746
36.863,38.66
36.798,38.57
36.739,38.477
36.685,38.383
36.637,38.289
36.594,38.197
36.553,38.107
36.515,38.022
36.478,37.941
36.441,37.866
36.403,37.795
36.364,37.73
36.324,37.67
36.281,37.615
36.238,37.566
36.195,37.521
36.152,37.48
36.109,37.442
36.067,37.405
36.027,37.369
35.991,37.333
35.959,37.298
35.931,37.262
35.909,37.224
35.892,37.186
35.879,37.146
35.87,37.105
35.866,37.064
35.867,37.022
35.873,36.98
35.883,36.939
35.898,36.898
35.916,36.86
35.936,36.822
35.958,36.787
35.981,36.754
36.005,36.724
36.028,36.697
36.05,36.672
36.072,36.649
36.092,36.628
36.108,36.608
36.117,36.59
36.116,36.574
36.102,36.558
36.077,36.543
36.043,36.529
36.002,36.514
35.958,36.501
35.913,36.487
35.87,36.472
35.83,36.457
35.795,36.44
35.764,36.421
35.737,36.401
35.714,36.377
35.693,36.35
35.675,36.32
35.659,36.286
35.643,36.25
35.628,36.211
35.612,36.169
35.595,36.125
35.576,36.08
35.555,36.034
35.532,35.987
35.507,35.938
35.479,35.888
35.448,35.836
35.414,35.782
35.377,35.725
35.337,35.666
35.294,35.604
35.248,35.541
35.199,35.476
35.149,35.409
35.097,35.342
35.045,35.273
34.992,35.204
34.939,35.134
34.888,35.064
34.838,34.993
34.791,34.923
34.747,34.853
34.706,34.783
34.668,34.716
34.633,34.65
34.602,34.587
34.574,34.528
34.549,34.472
34.527,34.421
34.508,34.373
34.491,34.33
34.478,34.291
34.466,34.256
34.456,34.225
34.447,34.197
34.437,34.173
34.427,34.151
34.417,34.132
34.405,34.116
34.392,34.102
34.377,34.09
34.361,34.078
34.345,34.066
34.327,34.054
34.309,34.041
34.292,34.029
34.275,34.016
34.257,34.004
34.241,33.991
34.225,33.977
34.21,33.962
34.197,33.947
34.185,33.929
34.174,33.911
34.164,33.89
34.155,33.868
34.148,33.845
34.143,33.821
34.139,33.796
34.137,33.773
34.134,33.749
34.132,33.727
34.13,33.705
34.129,33.683
34.129,33.664
34.129,33.645
34.127,33.627
34.125,33.609
34.123,33.59
34.121,33.572
34.119,33.553
34.118,33.534
34.118,33.514
34.123,33.493
34.134,33.469
34.154,33.444
34.187,33.417
34.233,33.39
34.296,33.364
34.376,33.34
34.476,33.318
34.597,33.3
34.739,33.288
34.901,33.283
35.081,33.288
35.278,33.304
35.489,33.335
35.711,33.382
35.942,33.448
36.177,33.535
36.414,33.645
36.648,33.78
36.878,33.939
37.1,34.123
37.311,34.331
37.507,34.562
37.687,34.813
37.849,35.081
37.991,35.364
38.11,35.658
38.208,35.96
38.282,36.264
38.335,36.566
38.366,36.863
38.376,37.149
38.368,37.422
38.342,37.679
38.301,37.916
38.247,38.131
38.182,38.322
38.107,38.489
38.025,38.632
37.936,38.749
37.843,38.84
37.747,38.907
37.652,38.949
37.558,38.97
37.467,38.97
37.378,38.952
37.295,38.918
37.217,38.869
37.145,38.81
37.079,38.741
37.018,38.666
36.962,38.586
36.909,38.503
36.859,38.419
36.81,38.335
36.762,38.252
36.714,38.171
36.665,38.092
36.616,38.014
36.566,37.938
36.514,37.865
36.461,37.794
36.407,37.727
36.351,37.663
36.294,37.604
36.238,37.548
36.183,37.495
36.129,37.443
36.079,37.393
36.034,37.344
35.994,37.296
35.96,37.248
35.934,37.2
35.914,37.152
35.901,37.104
35.893,37.057
35.891,37.01
35.896,36.964
35.905,36.92
35.919,36.878
35.936,36.837
35.955,36.799
35.975,36.764
35.995,36.731
36.014,36.701
36.031,36.674
36.045,36.65
36.055,36.629
36.063,36.61
36.066,36.593
36.066,36.578
36.063,36.565
36.058,36.555
36.051,36.546
36.042,36.539
36.03,36.532
36.015,36.524
35.998,36.514
35.979,36.501
35.958,36.485
35.935,36.465
35.912,36.441
35.887,36.415
35.861,36.385
35.834,36.353
35.806,36.319
35.777,36.283
35.748,36.244
35.717,36.205
35.686,36.165
35.655,36.124
35.622,36.082
35.587,36.038
35.551,35.992
35.513,35.945
35.471,35.896
35.428,35.845
35.381,35.794
35.333,35.743
35.282,35.69
35.23,35.637
35.177,35.583
35.122,35.529
35.068,35.475
35.013,35.42
34.959,35.365
34.904,35.308
34.85,35.25
34.798,35.189
34.748,35.127
34.7,35.063
34.657,34.997
34.616,34.929
34.579,34.862
34.544,34.794
34.512,34.726
34.483,34.657
34.457,34.588
34.433,34.52
34.412,34.455
34.391,34.393
34.371,34.335
34.352,34.28
34.333,34.228
34.313,34.18
34.292,34.137
34.269,34.098
34.245,34.063
34.218,34.033
34.192,34.006
34.164,33.983
34.136,33.963
34.108,33.947
34.08,33.934
34.052,33.924
34.025,33.917
33.999,33.912
33.975,33.909
33.953,33.906
33.932,33.905
33.914,33.902
33.898,33.899
33.886,33.894
33.876,33.886
33.87,33.875
33.867,33.86
33.866,33.842
33.867,33.822
33.87,33.8
33.874,33.776
33.88,33.751
33.885,33.724
33.891,33.694
33.896,33.664
33.9,33.633
33.902,33.602
33.902,33.572
33.899,33.544
33.893,33.517
33.884,33.491
33.871,33.468
33.856,33.447
33.839,33.429
33.821,33.414
33.802,33.401
33.784,33.388
33.769,33.375
33.76,33.359
33.76,33.342
33.771,33.324
33.796,33.305
33.84,33.286
33.903,33.268
33.988,33.25
34.097,33.234
34.231,33.22
34.388,33.208
34.567,33.197
34.766,33.186
34.984,33.174
35.216,33.16
35.457,33.145
35.704,33.128
35.952,33.107
36.196,33.084
36.433,33.058
36.659,33.029
36.871,32.997
37.065,32.963
37.241,32.93
37.396,32.898
37.531,32.872
37.645,32.855
37.738,32.85
37.812,32.858
37.867,32.884
37.905,32.931
37.925,33.002
37.928,33.1
37.918,33.227
37.894,33.384
37.859,33.569
37.813,33.783
37.758,34.025
37.696,34.292
37.628,34.582
37.556,34.891
37.482,35.217
37.405,35.554
37.327,35.897
37.249,36.242
37.17,36.583
37.091,36.915
37.013,37.236
36.936,37.541
36.86,37.825
36.785,38.085
36.71,38.318
36.637,38.52
36.565,38.692
36.493,38.831
36.421,38.941
36.351,39.021
36.281,39.073
36.212,39.1
36.144,39.105
36.078,39.088
36.016,39.053
35.957,39.001
35.904,38.935
35.857,38.858
35.815,38.772
35.779,38.68
35.748,38.584
35.722,38.486
35.701,38.388
35.686,38.291
35.675,38.197
35.669,38.108
35.666,38.024
35.667,37.946
35.672,37.875
35.679,37.811
35.688,37.753
35.698,37.7
35.709,37.652
35.719,37.608
35.73,37.568
35.74,37.529
35.75,37.492
35.758,37.454
35.766,37.414
35.773,37.372
35.778,37.327
35.783,37.281
35.787,37.233
35.791,37.184
35.794,37.134
35.796,37.084
35.799,37.033
35.802,36.982
35.805,36.93
35.807,36.878
35.809,36.829
35.81,36.781
35.81,36.735
35.808,36.693
35.803,36.652
35.797,36.615
35.787,36.58
35.774,36.55
35.757,36.524
35.736,36.502
35.71,36.485
35.678,36.472
35.642,36.462
35.601,36.455
35.555,36.45
35.506,36.444
35.453,36.439
35.398,36.434
35.34,36.429
35.281,36.423
35.222,36.415
35.162,36.405
35.103,36.393
35.046,36.379
34.99,36.363
34.937,36.344
34.887,36.322
34.841,36.297
34.798,36.268
34.759,36.235
34.725,36.198
34.693,36.157
34.665,36.111
34.64,36.061
34.618,36.006
34.598,35.947
34.579,35.885
34.562,35.819
34.545,35.751
34.527,35.681
34.508,35.61
34.489,35.537
34.467,35.462
34.444,35.386
34.42,35.31
34.394,35.233
34.367,35.156
34.34,35.079
34.313,35.004
34.285,34.93
34.258,34.857
34.23,34.787
34.202,34.719
34.175,34.655
34.149,34.595
34.124,34.538
34.103,34.485
34.085,34.436
34.07,34.39
34.06,34.348
34.055,34.309
34.053,34.272
34.055,34.239
34.06,34.209
34.067,34.184
34.077,34.162
34.087,34.145
34.097,34.129
34.105,34.116
34.111,34.104
34.113,34.092
34.111,34.08
34.103,34.067
34.09,34.052
34.072,34.034
34.049,34.014
34.024,33.991
33.996,33.965
33.967,33.937
33.937,33.906
33.908,33.874
33.881,33.842
33.859,33.809
33.843,33.777
33.835,33.746
33.834,33.715
33.846,33.686
33.875,33.658
33.925,33.632
33.996,33.608
34.091,33.585
34.207,33.564
34.346,33.543
34.504,33.524
34.679,33.506
34.87,33.49
35.074,33.476
35.287,33.462
35.507,33.449
35.732,33.437
35.958,33.426
36.181,33.415
36.398,33.405
36.607,33.395
36.805,33.385
36.991,33.375
37.161,33.366
37.316,33.356
37.453,33.344
37.572,33.33
37.673,33.314
37.756,33.295
37.82,33.273
37.868,33.247
37.898,33.217
37.913,33.185
37.913,33.15
37.901,33.113
37.877,33.076
37.843,33.038
37.8,33.001
37.749,32.965
37.69,32.93
37.625,32.897
37.555,32.865
37.48,32.836
37.402,32.809
37.322,32.783
37.239,32.759
37.155,32.737
37.069,32.716
36.983,32.697
36.896,32.681
36.81,32.667
36.724,32.656
36.64,32.648
36.556,32.645
36.474,32.648
36.393,32.658
36.314,32.679
36.236,32.711
36.16,32.757
36.087,32.819
36.017,32.902
35.95,33.006
35.888,33.134
35.831,33.287
35.778,33.466
35.73,33.67
35.689,33.899
35.654,34.15
35.625,34.421
35.603,34.708
35.588,35.009
35.579,35.32
35.575,35.636
35.578,35.952
35.584,36.266
35.594,36.572
35.605,36.867
35.619,37.149
35.632,37.414
35.646,37.66
35.659,37.885
35.672,38.088
35.684,38.267
35.695,38.422
35.704,38.552
35.712,38.656
35.719,38.736
35.726,38.791
35.732,38.823
35.738,38.834
35.745,38.825
35.752,38.798
35.758,38.755
35.765,38.699
35.771,38.631
35.778,38.553
35.783,38.468
35.789,38.377
35.794,38.282
35.797,38.186
35.8,38.088
35.801,37.992
35.8,37.897
35.795,37.806
35.787,37.718
35.773,37.634
35.754,37.554
35.73,37.478
35.7,37.406
35.665,37.338
35.626,37.272
35.583,37.209
35.536,37.147
35.487,37.086
35.436,37.025
35.382,36.964
35.328,36.903
35.272,36.842
35.217,36.782
35.163,36.723
35.11,36.667
35.059,36.613
35.012,36.564
34.969,36.518
34.929,36.477
34.894,36.441
34.862,36.409
34.834,36.383
34.81,36.361
34.789,36.344
34.771,36.332
34.756,36.325
34.742,36.322
34.727,36.323
34.712,36.328
34.695,36.335
34.676,36.344
34.654,36.354
34.629,36.366
34.601,36.376
34.57,36.386
34.535,36.393
34.498,36.399
34.459,36.401
34.417,36.4
34.375,36.394
34.332,36.384
34.291,36.369
34.251,36.35
34.215,36.327
34.182,36.298
34.153,36.264
34.128,36.225
34.108,36.182
34.092,36.135
34.079,36.084
34.07,36.029
34.064,35.971
34.06,35.91
34.058,35.846
34.058,35.781
34.059,35.715
34.06,35.648
34.062,35.581
34.062,35.514
34.062,35.448
34.061,35.383
34.058,35.318
34.052,35.254
34.044,35.191
34.033,35.129
34.02,35.069
34.004,35.009
33.986,34.95
33.966,34.892
33.945,34.835
33.923,34.78
33.899,34.726
33.876,34.674
33.852,34.622
33.828,34.57
33.805,34.518
33.784,34.466
33.766,34.415
33.752,34.364
33.743,34.315
33.742,34.266
33.752,34.219
33.773,34.173
33.809,34.128
33.863,34.083
33.935,34.04
34.027,33.997
34.14,33.956
34.273,33.917
34.427,33.88
34.599,33.845
34.788,33.812
34.991,33.782
35.207,33.755
35.431,33.732
35.661,33.711
35.895,33.694
36.129,33.679
36.36,33.666
36.586,33.654
36.803,33.644
37.01,33.637
37.202,33.631
37.38,33.626
37.541,33.622
37.685,33.618
37.811,33.616
37.92,33.615
38.012,33.615
38.086,33.613
38.144,33.611
38.184,33.606
38.209,33.6
38.217,33.591
38.212,33.58
38.193,33.566
38.162,33.548
38.118,33.527
38.063,33.503
37.999,33.477
37.926,33.449
37.846,33.42
37.762,33.39
37.674,33.361
37.584,33.332
37.492,33.304
37.399,33.277
37.306,33.251
37.214,33.227
37.124,33.204
37.035,33.183
36.948,33.163
36.864,33.146
36.784,33.129
36.707,33.113
36.635,33.097
36.568,33.082
36.507,33.068
36.452,33.053
36.403,33.038
36.359,33.022
36.32,33.004
36.285,32.987
36.254,32.97
36.227,32.953
36.201,32.935
36.178,32.916
36.157,32.896
36.138,32.877
36.12,32.859
36.104,32.843
36.088,32.831
36.074,32.825
36.062,32.827
36.051,32.838
36.041,32.862
36.034,32.902
36.029,32.961
36.028,33.044
36.029,33.151
36.033,33.286
36.039,33.45
36.048,33.642
36.058,33.863
36.07,34.111
36.084,34.383
36.098,34.677
36.114,34.986
36.13,35.307
36.146,35.634
36.162,35.962
36.177,36.285
36.192,36.601
36.205,36.905
36.216,37.193
36.223,37.463
36.226,37.711
36.225,37.934
36.219,38.131
36.208,38.302
36.193,38.445
36.173,38.561
36.147,38.651
36.117,38.716
36.081,38.756
36.041,38.772
35.996,38.766
35.947,38.738
35.895,38.692
35.841,38.628
35.786,38.55
35.73,38.459
35.676,38.358
35.622,38.248
35.571,38.132
35.522,38.012
35.475,37.888
35.431,37.764
35.39,37.642
35.351,37.523
35.313,37.41
35.277,37.305
35.242,37.208
35.208,37.12
35.173,37.041
35.138,36.969
35.1,36.903
35.062,36.84
35.022,36.78
34.98,36.721
34.937,36.661
34.893,36.601
34.846,36.539
34.798,36.477
34.748,36.416
34.697,36.358
34.646,36.302
34.595,36.252
34.543,36.207
34.493,36.169
34.444,36.136
34.397,36.109
34.355,36.089
34.317,36.074
34.283,36.065
34.255,36.06
34.233,36.06
34.217,36.061
34.206,36.065
34.199,36.07
34.197,36.075
34.197,36.08
34.198,36.084
34.2,36.087
34.202,36.088
34.203,36.088
34.204,36.086
34.203,36.082
34.2,36.076
34.195,36.07
34.188,36.062
34.179,36.054
34.169,36.044
34.157,36.034
34.144,36.022
34.129,36.009
34.112,35.994
34.095,35.977
34.076,35.958
34.057,35.937
34.038,35.912
34.019,35.883
34.001,35.85
33.983,35.812
33.966,35.769
33.951,35.723
33.938,35.674
33.928,35.623
33.92,35.568
33.915,35.511
33.913,35.451
33.914,35.39
33.919,35.327
33.928,35.262
33.943,35.196
33.965,35.127
33.993,35.056
34.031,34.984
34.08,34.909
34.143,34.833
34.22,34.757
34.315,34.681
34.428,34.606
34.561,34.534
34.713,34.462
34.884,34.392
35.072,34.324
35.276,34.258
35.494,34.195
35.721,34.134
35.957,34.076
36.198,34.02
36.443,33.968
36.689,33.918
36.933,33.871
37.173,33.828
37.406,33.789
37.63,33.754
37.84,33.723
38.033,33.695
38.208,33.67
38.362,33.649
38.495,33.631
38.605,33.616
38.692,33.604
38.756,33.593
38.797,33.584
38.816,33.575
38.815,33.568
38.795,33.561
38.757,33.556
38.704,33.55
38.638,33.546
38.561,33.541
38.474,33.536
38.38,33.53
38.28,33.524
38.177,33.517
38.072,33.509
37.967,33.5
37.864,33.489
37.764,33.475
37.668,33.459
37.576,33.441
37.49,33.422
37.41,33.402
37.335,33.382
37.266,33.361
37.202,33.34
37.142,33.318
37.087,33.297
37.036,33.277
36.988,33.259
36.944,33.241
36.901,33.224
36.859,33.207
36.818,33.19
36.775,33.175
36.732,33.159
36.687,33.143
36.64,33.127
36.591,33.112
36.542,33.097
36.491,33.083
36.442,33.07
36.393,33.058
36.347,33.046
36.304,33.036
36.265,33.027
36.232,33.021
36.203,33.018
36.178,33.019
36.157,33.028
36.142,33.046
36.131,33.076
36.124,33.12
36.119,33.18
36.11,33.26
36.1,33.361
36.094,33.485
36.095,33.633
36.104,33.806
36.121,34.004
36.144,34.225
36.171,34.468
36.201,34.73
36.23,35.007
36.256,35.295
36.279,35.591
36.296,35.889
36.306,36.185
36.307,36.475
36.299,36.754
36.284,37.018
36.26,37.265
36.23,37.49
36.194,37.693
36.154,37.872
36.11,38.025
36.063,38.153
36.013,38.255
35.961,38.331
35.909,38.384
35.856,38.415
35.804,38.424
35.753,38.413
35.703,38.384
35.655,38.339
35.607,38.278
35.56,38.205
35.514,38.12
35.469,38.025
35.424,37.922
35.378,37.813
35.331,37.699
35.282,37.584
35.232,37.467
35.18,37.349
35.128,37.233
35.074,37.118
35.019,37.006
34.963,36.896
34.907,36.79
34.85,36.686
34.795,36.587
34.74,36.492
34.687,36.402
34.635,36.315
34.587,36.233
34.541,36.156
34.498,36.084
34.458,36.017
34.421,35.954
34.387,35.896
34.355,35.843
34.327,35.795
34.301,35.752
34.279,35.714
34.26,35.682
34.244,35.656
34.23,35.635
34.218,35.621
34.207,35.613
34.196,35.611
34.184,35.615
34.172,35.623
34.158,35.637
34.142,35.654
34.123,35.674
34.103,35.697
34.08,35.721
34.056,35.744
34.031,35.768
34.005,35.79
33.98,35.811
33.955,35.83
33.93,35.846
33.906,35.859
33.882,35.868
33.86,35.873
33.839,35.874
33.82,35.871
33.802,35.862
33.787,35.848
33.774,35.829
33.763,35.805
33.755,35.777
33.748,35.743
33.743,35.706
33.741,35.664
33.739,35.621
33.74,35.575
33.743,35.528
33.748,35.48
33.756,35.431
33.768,35.38
33.783,35.328
33.806,35.275
33.837,35.22
33.879,35.164
33.934,35.106
34.005,35.048
34.093,34.989
34.198,34.93
34.324,34.87
34.469,34.81
34.634,34.75
34.819,34.69
35.021,34.629
35.24,34.568
35.472,34.507
35.716,34.447
35.967,34.386
36.222,34.326
36.477,34.267
36.73,34.208
36.976,34.149
37.211,34.092
37.433,34.034
37.637,33.978
37.823,33.924
37.988,33.871
38.13,33.82
38.249,33.773
38.343,33.73
38.414,33.691
38.461,33.656
38.484,33.625
38.485,33.598
38.466,33.574
38.426,33.553
38.369,33.534
38.297,33.518
38.21,33.504
38.113,33.493
38.007,33.484
37.896,33.476
37.781,33.471
37.667,33.467
37.554,33.465
37.444,33.465
37.339,33.466
37.24,33.472
37.148,33.485
37.062,33.504
36.983,33.529
36.911,33.556
36.844,33.583
36.782,33.606
36.724,33.625
36.669,33.635
36.615,33.638
36.563,33.631
36.511,33.616
36.458,33.592
36.404,33.56
36.348,33.523
36.289,33.48
36.229,33.434
36.167,33.385
36.105,33.336
36.045,33.287
35.986,33.24
35.93,33.197
35.879,33.156
35.832,33.12
35.791,33.088
35.758,33.061
35.734,33.039
35.717,33.022
35.71,33.009
35.71,33.001
35.717,33
35.733,33.005
35.754,33.018
35.78,33.04
35.809,33.072
35.841,33.116
35.874,33.176
35.907,33.252
35.939,33.348
35.967,33.463
35.993,33.6
36.014,33.758
36.031,33.937
36.043,34.137
36.049,34.356
36.048,34.592
36.041,34.843
36.028,35.106
36.01,35.377
35.989,35.651
35.965,35.926
35.938,36.195
35.907,36.457
35.875,36.709
35.842,36.946
35.809,37.167
35.776,37.37
35.742,37.552
35.708,37.712
35.674,37.851
35.64,37.969
35.607,38.065
35.574,38.14
35.54,38.196
35.505,38.231
35.468,38.248
35.429,38.247
35.388,38.229
35.344,38.195
35.298,38.145
35.248,38.083
35.196,38.01
35.142,37.928
35.085,37.836
35.026,37.738
34.966,37.634
34.904,37.526
34.841,37.417
34.779,37.307
34.718,37.199
34.659,37.092
34.601,36.989
34.546,36.888
34.494,36.79
34.447,36.695
34.405,36.603
34.366,36.515
34.333,36.43
34.303,36.347
34.277,36.266
34.255,36.187
34.236,36.11
34.218,36.035
34.203,35.962
34.187,35.891
34.173,35.824
34.16,35.761
34.147,35.703
34.135,35.651
34.122,35.606
34.107,35.569
34.092,35.539
34.075,35.519
34.057,35.507
34.038,35.505
34.018,35.511
33.998,35.525
33.977,35.545
33.957,35.573
33.938,35.604
33.919,35.64
33.9,35.68
33.882,35.721
33.864,35.765
33.847,35.81
33.832,35.853
33.817,35.895
33.804,35.934
33.794,35.969
33.785,36
33.778,36.028
33.773,36.05
33.77,36.066
33.77,36.075
33.771,36.077
33.773,36.071
33.775,36.058
33.776,36.038
33.777,36.01
33.778,35.975
33.779,35.933
33.782,35.884
33.79,35.828
33.803,35.767
33.825,35.702
33.857,35.634
33.903,35.564
33.964,35.493
34.041,35.422
34.138,35.35
34.255,35.278
34.393,35.207
34.552,35.136
34.729,35.065
34.924,34.996
35.133,34.928
35.356,34.86
35.587,34.794
35.825,34.729
36.065,34.666
36.304,34.606
36.538,34.549
36.766,34.496
36.983,34.446
37.187,34.398
37.375,34.353
37.543,34.31
37.689,34.269
37.812,34.23
37.909,34.192
37.981,34.155
38.027,34.113
38.05,34.061
38.049,33.997
38.028,33.921
37.987,33.837
37.929,33.75
37.858,33.664
37.775,33.584
37.684,33.512
37.585,33.452
37.48,33.404
37.373,33.37
37.264,33.349
37.156,33.341
37.049,33.345
36.946,33.357
36.846,33.375
36.75,33.398
36.66,33.423
36.576,33.449
36.498,33.474
36.424,33.497
36.355,33.517
36.289,33.534
36.224,33.547
36.161,33.557
36.097,33.564
36.033,33.568
35.967,33.569
35.899,33.569
35.831,33.566
35.761,33.56
35.691,33.554
35.622,33.546
35.554,33.538
35.488,33.529
35.427,33.52
35.371,33.509
35.321,33.497
35.277,33.483
35.241,33.467
35.214,33.451
35.196,33.434
35.189,33.417
35.191,33.4
35.201,33.382
35.219,33.364
35.244,33.348
35.274,33.334
35.308,33.325
35.345,33.323
35.384,33.329
35.424,33.347
35.463,33.379
35.499,33.428
35.532,33.497
35.56,33.587
35.584,33.702
35.603,33.842
35.617,34.007
35.624,34.197
35.625,34.409
35.619,34.643
35.608,34.894
35.591,35.161
35.572,35.439
35.551,35.726
35.528,36.016
35.503,36.307
35.477,36.593
35.45,36.871
35.422,37.136
35.394,37.386
35.366,37.617
35.337,37.827
35.307,38.013
35.276,38.172
35.244,38.303
35.211,38.404
35.177,38.477
35.14,38.522
35.103,38.54
35.063,38.534
35.022,38.506
34.979,38.457
34.934,38.391
34.888,38.309
34.84,38.214
34.79,38.108
34.739,37.993
34.686,37.872
34.633,37.748
34.579,37.623
34.525,37.496
34.471,37.371
34.417,37.247
34.365,37.127
34.314,37.01
34.264,36.897
34.216,36.79
34.171,36.689
34.129,36.593
34.09,36.503
34.055,36.417
34.023,36.336
33.995,36.257
33.97,36.182
33.948,36.11
33.93,36.04
33.915,35.975
33.903,35.913
33.892,35.856
33.883,35.804
33.875,35.758
33.868,35.718
33.862,35.685
33.855,35.66
33.849,35.642
33.843,35.631
33.836,35.626
33.827,35.627
33.818,35.632
33.806,35.641
33.793,35.653
33.778,35.668
33.762,35.685
33.747,35.703
33.733,35.723
33.719,35.743
33.707,35.764
33.695,35.785
33.683,35.805
33.673,35.826
33.664,35.845
33.658,35.862
33.653,35.877
33.65,35.89
33.648,35.9
33.648,35.907
33.649,35.911
33.652,35.911
33.655,35.907
33.659,35.898
33.662,35.885
33.665,35.866
33.667,35.842
33.668,35.814
33.666,35.782
33.661,35.745
33.655,35.705
33.647,35.661
33.64,35.614
33.635,35.566
33.633,35.516
33.638,35.464
33.651,35.411
33.677,35.356
33.718,35.299
33.776,35.239
33.854,35.177
33.952,35.112
34.073,35.044
34.217,34.975
34.382,34.903
34.569,34.829
34.774,34.754
34.995,34.679
35.229,34.603
35.471,34.528
35.719,34.455
35.969,34.383
36.215,34.313
36.454,34.246
36.682,34.182
36.895,34.121
37.092,34.064
37.268,34.01
37.423,33.96
37.554,33.914
37.66,33.872
37.741,33.836
37.798,33.803
37.831,33.775
37.84,33.749
37.829,33.727
37.8,33.706
37.754,33.688
37.696,33.671
37.626,33.656
37.549,33.642
37.464,33.629
37.376,33.618
37.286,33.607
37.194,33.598
37.103,33.589
37.013,33.582
36.924,33.575
36.84,33.568
36.759,33.56
36.682,33.551
36.608,33.541
36.539,33.529
36.472,33.517
36.409,33.505
36.349,33.492
36.29,33.479
36.233,33.468
36.176,33.458
36.118,33.448
36.058,33.439
35.997,33.43
35.933,33.42
35.866,33.411
35.798,33.402
35.73,33.393
35.663,33.385
35.598,33.376
35.538,33.367
35.482,33.358
35.432,33.35
35.388,33.341
35.351,33.334
35.322,33.327
35.299,33.321
35.283,33.316
35.273,33.311
35.27,33.305
35.273,33.299
35.283,33.292
35.297,33.284
35.315,33.274
35.337,33.261
35.362,33.247
35.387,33.229
35.415,33.21
35.445,33.187
35.483,33.162
35.53,33.134
35.583,33.105
35.632,33.076
35.67,33.047
35.695,33.02
35.705,32.997
35.703,32.979
35.689,32.97
35.665,32.971
35.635,32.985
35.599,33.016
35.56,33.068
35.521,33.142
35.483,33.243
35.446,33.372
35.413,33.531
35.383,33.721
35.357,33.939
35.335,34.187
35.316,34.461
35.3,34.757
35.286,35.072
35.273,35.401
35.258,35.74
35.241,36.083
35.221,36.426
35.197,36.764
35.169,37.092
35.137,37.405
35.1,37.702
35.06,37.977
35.016,38.228
34.968,38.452
34.917,38.649
34.863,38.815
34.807,38.952
34.749,39.058
34.69,39.135
34.631,39.184
34.572,39.205
34.515,39.203
34.46,39.177
34.407,39.131
34.359,39.065
34.315,38.98
34.275,38.878
34.239,38.761
34.206,38.633
34.178,38.497
34.153,38.357
34.132,38.217
34.114,38.079
34.098,37.944
34.084,37.816
34.07,37.694
34.058,37.581
34.047,37.476
34.034,37.38
34.021,37.291
34.007,37.21
33.992,37.136
33.974,37.069
33.956,37.007
33.936,36.949
33.914,36.895
33.889,36.844
33.864,36.794
33.838,36.746
33.812,36.7
33.786,36.655
33.761,36.612
33.737,36.571
33.715,36.534
33.694,36.499
33.676,36.467
33.662,36.438
33.652,36.413
33.645,36.393
33.642,36.377
33.641,36.364
33.643,36.355
33.649,36.35
33.657,36.347
33.667,36.348
33.678,36.352
33.689,36.358
33.699,36.366
33.708,36.376
33.715,36.387
33.719,36.399
33.719,36.409
33.714,36.419
33.705,36.426
33.691,36.431
33.674,36.434
33.654,36.434
33.631,36.43
33.607,36.422
33.581,36.409
33.554,36.393
33.526,36.374
33.497,36.351
33.467,36.326
33.438,36.297
33.41,36.266
33.385,36.232
33.364,36.195
33.349,36.156
33.344,36.113
33.349,36.069
33.368,36.022
33.404,35.973
33.458,35.921
33.532,35.868
33.627,35.811
33.744,35.751
33.882,35.689
34.042,35.624
34.222,35.557
34.42,35.487
34.633,35.415
34.858,35.34
35.093,35.262
35.333,35.181
35.576,35.098
35.818,35.015
36.055,34.931
36.284,34.848
36.502,34.767
36.707,34.687
36.896,34.61
37.068,34.534
37.222,34.462
37.356,34.393
37.471,34.329
37.566,34.269
37.642,34.213
37.7,34.161
37.741,34.113
37.766,34.067
37.777,34.025
37.774,33.986
37.758,33.951
37.73,33.919
37.691,33.891
37.642,33.866
37.584,33.845
37.518,33.826
37.445,33.81
37.366,33.797
37.283,33.787
37.197,33.779
37.109,33.773
37.021,33.767
36.933,33.763
36.848,33.759
36.765,33.756
36.686,33.755
36.611,33.753
36.54,33.752
36.473,33.75
36.411,33.746
36.353,33.742
36.299,33.737
36.249,33.731
36.203,33.723
36.16,33.715
36.12,33.705
36.083,33.692
36.05,33.677
36.019,33.659
35.991,33.639
35.966,33.617
35.942,33.594
35.919,33.57
35.898,33.546
35.878,33.522
35.858,33.499
35.839,33.477
35.82,33.456
35.802,33.437
35.785,33.421
35.77,33.407
35.754,33.394
35.74,33.382
35.725,33.372
35.711,33.364
35.698,33.358
35.687,33.356
35.677,33.359
35.669,33.367
35.664,33.383
35.661,33.41
35.661,33.449
35.665,33.506
35.67,33.583
35.678,33.682
35.687,33.805
35.698,33.953
35.711,34.13
35.724,34.332
35.737,34.559
35.748,34.807
35.756,35.074
35.762,35.355
35.764,35.648
35.761,35.947
35.753,36.247
35.74,36.544
35.721,36.834
35.696,37.114
35.666,37.379
35.63,37.629
35.589,37.861
35.543,38.072
35.493,38.262
35.439,38.427
35.383,38.567
35.325,38.682
35.266,38.772
35.206,38.838
35.148,38.881
35.091,38.902
35.037,38.903
34.984,38.887
34.935,38.853
34.889,38.804
34.847,38.742
34.809,38.668
34.775,38.584
34.744,38.493
34.715,38.396
34.687,38.296
34.66,38.193
34.633,38.089
34.606,37.985
34.578,37.882
34.548,37.781
34.516,37.682
34.484,37.587
34.449,37.495
34.413,37.406
34.376,37.321
34.336,37.239
34.295,37.158
34.252,37.079
34.21,37
34.168,36.921
34.127,36.843
34.087,36.765
34.05,36.688
34.017,36.61
33.986,36.534
33.96,36.459
33.938,36.387
33.92,36.319
33.906,36.255
33.896,36.198
33.889,36.148
33.886,36.106
33.885,36.07
33.886,36.042
33.888,36.021
33.891,36.006
33.895,35.998
33.897,35.997
33.899,36.002
33.899,36.013
33.898,36.029
33.894,36.048
33.887,36.072
33.878,36.098
33.865,36.125
33.85,36.154
33.83,36.183
33.808,36.212
33.784,36.239
33.758,36.264
33.731,36.286
33.703,36.303
33.674,36.317
33.647,36.326
33.621,36.331
33.598,36.33
33.579,36.322
33.562,36.308
33.55,36.287
33.543,36.258
33.542,36.222
33.548,36.178
33.564,36.127
33.59,36.068
33.63,36.003
33.683,35.932
33.754,35.856
33.842,35.775
33.948,35.691
34.074,35.605
34.217,35.519
34.377,35.434
34.552,35.35
34.742,35.268
34.943,35.188
35.154,35.109
35.372,35.033
35.593,34.958
35.815,34.885
36.033,34.815
36.245,34.747
36.446,34.68
36.635,34.616
36.81,34.553
36.969,34.491
37.111,34.432
37.236,34.375
37.341,34.323
37.428,34.275
37.498,34.231
37.551,34.191
37.589,34.156
37.612,34.125
37.62,34.098
37.613,34.074
37.594,34.052
37.561,34.031
37.516,34.01
37.46,33.99
37.395,33.968
37.32,33.944
37.239,33.918
37.152,33.889
37.06,33.859
36.966,33.826
36.871,33.793
36.777,33.758
36.686,33.723
36.599,33.689
36.515,33.656
36.437,33.625
36.363,33.597
36.295,33.572
36.234,33.551
36.179,33.533
36.13,33.518
36.087,33.507
36.049,33.498
36.015,33.491
35.984,33.485
35.956,33.482
35.93,33.48
35.904,33.479
35.879,33.48
35.854,33.481
35.828,33.483
35.802,33.486
35.775,33.489
35.748,33.494
35.72,33.5
35.693,33.506
35.665,33.511
35.638,33.516
35.611,33.518
35.586,33.517
35.562,33.512
35.539,33.503
35.52,33.489
35.503,33.471
35.488,33.449
35.477,33.422
35.469,33.392
35.467,33.358
35.469,33.322
35.477,33.283
35.489,33.244
35.504,33.203
35.523,33.161
35.544,33.119
35.566,33.078
35.589,33.038
35.61,32.999
35.629,32.961
35.646,32.926
35.659,32.893
35.667,32.864
35.671,32.839
35.668,32.819
35.66,32.806
35.646,32.801
35.625,32.805
35.599,32.822
35.567,32.853
35.53,32.901
35.488,32.969
35.443,33.059
35.395,33.174
35.344,33.315
35.293,33.485
35.241,33.683
35.19,33.909
35.14,34.161
35.093,34.439
35.048,34.738
35.004,35.056
34.962,35.389
34.922,35.733
34.882,36.082
34.845,36.433
34.81,36.78
34.776,37.117
34.743,37.44
34.709,37.746
34.676,38.03
34.643,38.291
34.609,38.525
34.575,38.731
34.539,38.908
34.501,39.054
34.462,39.167
34.422,39.25
34.381,39.302
34.338,39.327
34.295,39.325
34.252,39.299
34.21,39.252
34.169,39.186
34.13,39.105
34.094,39.012
34.061,38.91
34.031,38.8
34.004,38.686
33.982,38.569
33.964,38.45
33.95,38.332
33.94,38.215
33.933,38.101
33.928,37.992
33.926,37.887
33.926,37.787
33.927,37.694
33.928,37.607
33.93,37.526
33.931,37.451
33.932,37.382
33.931,37.318
33.929,37.257
33.924,37.198
33.917,37.141
33.907,37.085
33.896,37.028
33.882,36.972
33.866,36.916
33.849,36.859
33.83,36.803
33.81,36.748
33.789,36.694
33.768,36.643
33.746,36.595
33.723,36.552
33.702,36.513
33.682,36.48
33.665,36.452
33.65,36.43
33.639,36.415
33.633,36.406
33.631,36.403
33.635,36.405
33.646,36.411
33.665,36.421
33.694,36.435
33.734,36.452
33.786,36.471
33.852,36.493
33.933,36.518
34.029,36.547
34.141,36.58
34.269,36.613
34.412,36.645
34.57,36.674
34.742,36.698
34.926,36.716
35.12,36.725
35.321,36.724
35.527,36.713
35.734,36.691
35.939,36.658
36.139,36.617
36.331,36.567
36.512,36.511
36.681,36.449
36.836,36.383
36.977,36.312
37.103,36.239
37.214,36.163
37.308,36.085
37.387,36.005
37.45,35.925
37.497,35.844
37.53,35.763
37.548,35.681
37.552,35.598
37.543,35.515
37.521,35.431
37.485,35.346
37.438,35.261
37.379,35.176
37.311,35.091
37.234,35.007
37.151,34.926
37.063,34.847
36.972,34.772
36.878,34.7
36.784,34.633
36.691,34.569
36.598,34.51
36.508,34.455
36.422,34.404
36.34,34.357
36.264,34.314
36.194,34.275
36.131,34.238
36.074,34.206
36.022,34.175
35.976,34.148
35.935,34.122
35.898,34.098
35.865,34.076
35.834,34.054
35.806,34.035
35.778,34.017
35.751,34.001
35.725,33.986
35.699,33.971
35.672,33.956
35.644,33.94
35.617,33.925
35.591,33.91
35.566,33.894
35.543,33.878
35.523,33.861
35.506,33.843
35.493,33.824
35.484,33.805
35.478,33.785
35.475,33.764
35.476,33.744
35.48,33.725
35.488,33.706
35.501,33.689
35.517,33.674
35.537,33.661
35.56,33.652
35.585,33.645
35.612,33.642
35.639,33.642
35.667,33.644
35.694,33.647
35.718,33.65
35.739,33.654
35.756,33.656
35.768,33.658
35.773,33.657
35.773,33.655
35.767,33.649
35.755,33.641
35.737,33.63
35.715,33.616
35.687,33.6
35.654,33.582
35.616,33.561
35.573,33.537
35.527,33.51
35.477,33.481
35.425,33.45
35.372,33.418
35.319,33.386
35.267,33.355
35.217,33.323
35.168,33.292
35.122,33.26
35.079,33.229
35.039,33.2
35.002,33.174
34.967,33.154
34.934,33.142
34.902,33.138
34.871,33.148
34.841,33.173
34.811,33.219
34.78,33.288
34.748,33.383
34.715,33.507
34.68,33.662
34.643,33.846
34.606,34.061
34.567,34.304
34.528,34.574
34.488,34.867
34.447,35.179
34.406,35.506
34.365,35.845
34.326,36.188
34.287,36.531
34.25,36.868
34.215,37.195
34.184,37.506
34.157,37.798
34.134,38.068
34.116,38.314
34.102,38.533
34.092,38.725
34.085,38.886
34.082,39.018
34.083,39.12
34.085,39.192
34.09,39.236
34.096,39.253
34.102,39.247
34.107,39.219
34.111,39.172
34.111,39.107
34.109,39.026
34.103,38.932
34.094,38.828
34.082,38.714
34.067,38.59
34.049,38.453
34.03,38.303
34.008,38.144
33.986,37.978
33.963,37.812
33.939,37.65
33.916,37.497
33.895,37.357
33.875,37.232
33.86,37.124
33.851,37.033
33.848,36.959
33.855,36.9
33.871,36.855
33.9,36.819
33.943,36.79
34,36.765
34.074,36.742
34.166,36.719
34.276,36.695
34.404,36.669
34.549,36.64
34.711,36.609
34.887,36.575
35.075,36.539
35.274,36.504
35.481,36.47
35.691,36.441
35.903,36.415
36.112,36.395
36.316,36.381
36.512,36.371
36.697,36.365
36.869,36.363
37.026,36.364
37.166,36.368
37.288,36.375
37.39,36.385
37.474,36.396
37.54,36.407
37.588,36.419
37.619,36.429
37.635,36.438
37.637,36.446
37.627,36.453
37.606,36.458
37.576,36.461
37.538,36.461
37.494,36.457
37.442,36.45
37.384,36.437
37.321,36.42
37.252,36.399
37.179,36.374
37.102,36.345
37.022,36.314
36.94,36.279
36.857,36.241
36.773,36.199
36.69,36.154
36.608,36.106
36.528,36.055
36.45,36.002
36.374,35.946
36.301,35.888
36.231,35.828
36.164,35.764
36.101,35.699
36.041,35.631
35.986,35.562
35.934,35.492
35.887,35.421
35.844,35.348
35.806,35.275
35.772,35.202
35.743,35.128
35.719,35.055
35.697,34.984
35.679,34.913
35.664,34.844
35.651,34.775
35.638,34.707
35.626,34.639
35.615,34.572
35.605,34.507
35.595,34.443
35.588,34.381
35.582,34.321
35.577,34.263
35.573,34.209
35.571,34.156
35.573,34.107
35.578,34.06
35.586,34.017
35.598,33.978
35.612,33.944
35.627,33.915
35.644,33.89
35.662,33.869
35.679,33.852
35.696,33.838
35.71,33.827
35.724,33.819
35.734,33.813
35.741,33.81
35.746,33.808
35.748,33.808
35.746,33.809
35.74,33.811
35.729,33.814
35.712,33.815
35.692,33.816
35.671,33.814
35.646,33.809
35.612,33.802
35.568,33.791
35.516,33.778
35.459,33.763
35.398,33.746
35.335,33.727
35.274,33.707
35.215,33.685
35.159,33.664
35.109,33.643
35.063,33.622
35.021,33.601
34.984,33.58
34.95,33.559
34.919,33.537
34.891,33.515
34.864,33.493
34.838,33.47
34.812,33.446
34.787,33.416
34.762,33.378
34.737,33.332
34.712,33.279
34.687,33.224
34.662,33.169
34.635,33.118
34.607,33.073
34.577,33.036
34.547,33.01
34.515,32.994
34.483,32.989
34.449,32.994
34.416,33.009
34.381,33.035
34.347,33.071
34.314,33.119
34.282,33.181
34.251,33.256
34.223,33.348
34.196,33.458
34.171,33.587
34.15,33.738
34.131,33.911
34.115,34.106
34.102,34.324
34.092,34.563
34.084,34.822
34.077,35.098
34.073,35.388
34.071,35.687
34.07,35.991
34.071,36.296
34.074,36.596
34.077,36.888
34.079,37.168
34.081,37.433
34.082,37.679
34.081,37.903
34.077,38.104
34.071,38.28
34.061,38.431
34.049,38.557
34.034,38.657
34.018,38.733
34,38.786
33.981,38.815
33.962,38.824
33.945,38.812
33.93,38.781
33.922,38.733
33.92,38.668
33.929,38.59
33.951,38.5
33.988,38.4
34.042,38.294
34.116,38.183
34.211,38.069
34.328,37.953
34.468,37.838
34.63,37.725
34.812,37.614
35.012,37.506
35.226,37.401
35.453,37.299
35.687,37.201
35.924,37.105
36.161,37.011
36.392,36.921
36.615,36.832
36.826,36.745
37.021,36.659
37.199,36.575
37.358,36.492
37.497,36.411
37.615,36.333
37.712,36.258
37.788,36.186
37.843,36.119
37.878,36.058
37.896,36.004
37.899,35.956
37.887,35.917
37.863,35.887
37.828,35.866
37.785,35.853
37.735,35.85
37.68,35.856
37.621,35.869
37.559,35.889
37.494,35.915
37.428,35.946
37.36,35.982
37.291,36.019
37.222,36.058
37.151,36.097
37.081,36.134
37.011,36.169
36.942,36.203
36.874,36.234
36.809,36.262
36.745,36.287
36.683,36.308
36.623,36.325
36.565,36.337
36.509,36.343
36.455,36.342
36.403,36.335
36.353,36.321
36.305,36.3
36.26,36.272
36.217,36.237
36.177,36.195
36.14,36.147
36.106,36.091
36.075,36.029
36.047,35.961
36.022,35.888
36.002,35.811
35.984,35.731
35.969,35.649
35.956,35.565
35.945,35.482
35.935,35.4
35.926,35.318
35.916,35.238
35.907,35.16
35.898,35.085
35.889,35.012
35.88,34.941
35.87,34.874
35.862,34.808
35.853,34.745
35.846,34.684
35.839,34.625
35.834,34.567
35.83,34.511
35.828,34.457
35.828,34.404
35.83,34.354
35.834,34.306
35.84,34.259
35.847,34.215
35.855,34.173
35.862,34.135
35.87,34.099
35.876,34.067
35.88,34.037
35.881,34.011
35.877,33.986
35.869,33.964
35.854,33.943
35.833,33.924
35.805,33.906
35.771,33.889
35.731,33.871
35.685,33.854
35.635,33.836
35.58,33.819
35.523,33.802
35.462,33.784
35.401,33.768
35.34,33.752
35.279,33.737
35.219,33.722
35.162,33.71
35.106,33.698
35.052,33.688
35.001,33.68
34.952,33.673
34.906,33.668
34.863,33.662
34.823,33.658
34.787,33.653
34.754,33.647
34.724,33.642
34.698,33.638
34.674,33.633
34.652,33.628
34.632,33.624
34.611,33.619
34.589,33.614
34.567,33.608
34.543,33.603
34.516,33.597
34.487,33.59
34.456,33.584
34.422,33.579
34.387,33.575
34.349,33.574
34.311,33.58
34.273,33.594
34.237,33.619
34.201,33.659
34.168,33.716
34.138,33.791
34.112,33.888
34.089,34.008
34.071,34.151
34.057,34.319
34.046,34.51
34.039,34.722
34.035,34.952
34.034,35.198
34.035,35.456
34.04,35.722
34.047,35.992
34.056,36.264
34.066,36.533
34.075,36.795
34.084,37.046
34.09,37.284
34.094,37.506
34.094,37.708
34.091,37.889
34.083,38.046
34.07,38.18
34.053,38.289
34.032,38.374
34.008,38.435
33.98,38.472
33.95,38.488
33.919,38.482
33.888,38.457
33.858,38.415
33.83,38.357
33.806,38.286
33.786,38.203
33.772,38.111
33.765,38.01
33.767,37.903
33.78,37.789
33.805,37.671
33.844,37.55
33.9,37.427
33.972,37.303
34.063,37.18
34.172,37.057
34.299,36.937
34.445,36.819
34.607,36.702
34.785,36.586
34.977,36.473
35.178,36.362
35.388,36.255
35.603,36.151
35.819,36.052
36.034,35.957
36.244,35.866
36.447,35.78
36.638,35.698
36.816,35.623
36.979,35.555
37.125,35.495
37.253,35.444
37.364,35.403
37.457,35.371
37.531,35.349
37.588,35.338
37.629,35.337
37.653,35.347
37.664,35.367
37.661,35.396
37.646,35.434
37.622,35.479
37.588,35.53
37.545,35.585
37.495,35.642
37.439,35.701
37.377,35.761
37.311,35.819
37.241,35.875
37.169,35.927
37.096,35.972
37.022,36.011
36.947,36.041
36.873,36.064
36.8,36.079
36.729,36.086
36.66,36.085
36.594,36.077
36.532,36.063
36.475,36.041
36.422,36.012
36.374,35.977
36.33,35.936
36.29,35.889
36.254,35.839
36.221,35.784
36.189,35.723
36.16,35.655
36.13,35.581
36.101,35.502
36.071,35.419
36.04,35.334
36.007,35.249
35.972,35.164
35.936,35.082
35.898,35.002
35.86,34.927
35.821,34.856
35.783,34.789
35.747,34.728
35.711,34.672
35.678,34.62
35.646,34.573
35.617,34.528
35.592,34.485
35.57,34.443
35.553,34.401
35.541,34.359
35.533,34.318
35.531,34.277
35.534,34.237
35.541,34.195
35.553,34.152
35.568,34.109
35.585,34.064
35.603,34.02
35.621,33.975
35.638,33.933
35.652,33.891
35.664,33.85
35.672,33.81
35.677,33.771
35.677,33.734
35.672,33.698
35.661,33.666
35.645,33.638
35.622,33.613
35.594,33.592
35.559,33.574
35.519,33.559
35.474,33.546
35.424,33.536
35.371,33.527
35.315,33.52
35.259,33.515
35.203,33.512
35.148,33.509
35.094,33.508
35.042,33.509
34.993,33.511
34.947,33.514
34.905,33.519
34.867,33.523
34.831,33.528
34.799,33.532
34.769,33.535
34.741,33.537
34.714,33.538
34.687,33.538
34.66,33.537
34.633,33.534
34.604,33.529
34.574,33.525
34.541,33.522
34.506,33.523
34.469,33.531
34.431,33.548
34.391,33.577
34.351,33.62
34.309,33.681
34.267,33.761
34.225,33.862
34.184,33.987
34.146,34.137
34.111,34.311
34.079,34.51
34.05,34.732
34.026,34.974
34.007,35.234
33.991,35.507
33.98,35.791
33.972,36.083
33.966,36.378
33.963,36.674
33.961,36.967
33.96,37.252
33.961,37.525
33.962,37.783
33.963,38.021
33.964,38.237
33.964,38.428
33.963,38.593
33.959,38.732
33.953,38.843
33.945,38.927
33.934,38.986
33.922,39.02
33.907,39.03
33.891,39.017
33.873,38.983
33.853,38.931
33.834,38.862
33.814,38.78
33.794,38.685
33.775,38.581
33.756,38.469
33.736,38.35
33.718,38.227
33.699,38.101
33.682,37.973
33.665,37.846
33.65,37.72
33.637,37.597
33.624,37.476
33.613,37.359
33.603,37.246
33.596,37.136
33.591,37.031
33.588,36.93
33.589,36.833
33.593,36.74
33.602,36.652
33.617,36.567
33.639,36.487
33.67,36.409
33.71,36.335
33.762,36.265
33.828,36.2
33.908,36.139
34.005,36.085
34.119,36.036
34.248,35.995
34.394,35.959
34.553,35.932
34.726,35.912
34.909,35.901
35.1,35.9
35.296,35.908
35.495,35.926
35.691,35.951
35.883,35.983
36.067,36.022
36.241,36.065
36.401,36.113
36.547,36.164
36.677,36.216
36.79,36.269
36.883,36.32
36.956,36.368
37.009,36.411
37.042,36.448
37.057,36.479
37.053,36.502
37.031,36.517
36.994,36.524
36.942,36.522
36.879,36.511
36.805,36.492
36.725,36.464
36.639,36.428
36.551,36.384
36.461,36.332
36.372,36.273
36.284,36.209
36.2,36.14
36.121,36.066
36.048,35.99
35.983,35.912
35.925,35.832
35.874,35.75
35.832,35.669
35.797,35.588
35.768,35.508
35.745,35.429
35.727,35.353
35.712,35.279
35.699,35.207
35.686,35.137
35.671,35.069
35.654,35.002
35.633,34.937
35.607,34.874
35.578,34.813
35.544,34.752
35.506,34.694
35.465,34.636
35.421,34.582
35.375,34.529
35.33,34.478
35.287,34.43
35.247,34.384
35.211,34.339
35.182,34.296
35.158,34.253
35.142,34.211
35.134,34.169
35.132,34.128
35.138,34.088
35.151,34.049
35.169,34.01
35.191,33.972
35.218,33.935
35.248,33.9
35.279,33.867
35.31,33.838
35.341,33.81
35.371,33.785
35.398,33.764
35.421,33.746
35.44,33.732
35.453,33.721
35.459,33.714
35.46,33.711
35.454,33.711
35.442,33.714
35.425,33.718
35.402,33.724
35.375,33.731
35.345,33.737
35.311,33.742
35.276,33.746
35.239,33.749
35.202,33.749
35.166,33.746
35.129,33.74
35.094,33.733
35.059,33.723
35.026,33.711
34.992,33.697
34.96,33.683
34.928,33.668
34.896,33.653
34.865,33.638
34.834,33.626
34.802,33.616
34.771,33.61
34.739,33.611
34.706,33.62
34.671,33.639
34.635,33.672
34.596,33.721
34.556,33.789
34.514,33.879
34.471,33.991
34.427,34.129
34.382,34.293
34.336,34.485
34.291,34.703
34.247,34.946
34.204,35.212
34.162,35.498
34.123,35.799
34.086,36.113
34.052,36.435
34.023,36.759
33.999,37.083
33.98,37.4
33.965,37.706
33.955,37.997
33.948,38.269
33.945,38.519
33.945,38.743
33.947,38.939
33.952,39.106
33.957,39.244
33.963,39.352
33.968,39.432
33.973,39.485
33.975,39.512
33.975,39.523
33.971,39.519
33.965,39.504
33.955,39.478
33.942,39.439
33.926,39.389
33.908,39.327
33.888,39.252
33.866,39.165
33.843,39.066
33.82,38.956
33.796,38.836
33.774,38.709
33.754,38.575
33.736,38.439
33.721,38.302
33.709,38.168
33.699,38.038
33.693,37.915
33.689,37.798
33.687,37.689
33.687,37.587
33.688,37.494
33.689,37.407
33.69,37.327
33.69,37.252
33.69,37.183
33.69,37.118
33.687,37.057
33.684,36.998
33.68,36.942
33.675,36.888
33.67,36.838
33.667,36.79
33.665,36.747
33.667,36.708
33.674,36.674
33.688,36.647
33.711,36.624
33.747,36.607
33.796,36.595
33.861,36.589
33.941,36.588
34.039,36.592
34.153,36.6
34.283,36.612
34.428,36.628
34.587,36.648
34.758,36.669
34.939,36.69
35.125,36.712
35.314,36.733
35.502,36.751
35.686,36.766
35.863,36.776
36.03,36.781
36.184,36.78
36.323,36.773
36.445,36.759
36.548,36.738
36.632,36.711
36.697,36.678
36.742,36.639
36.768,36.594
36.776,36.544
36.767,36.487
36.743,36.425
36.705,36.358
36.655,36.284
36.596,36.206
36.529,36.123
36.457,36.037
36.383,35.948
36.308,35.858
36.234,35.767
36.163,35.676
36.096,35.585
36.034,35.495
35.977,35.408
35.925,35.324
35.879,35.244
35.838,35.169
35.8,35.097
35.766,35.029
35.735,34.965
35.706,34.904
35.678,34.846
35.65,34.791
35.621,34.739
35.591,34.689
35.557,34.643
35.521,34.598
35.483,34.554
35.441,34.512
35.398,34.471
35.354,34.431
35.31,34.393
35.267,34.356
35.227,34.321
35.19,34.287
35.158,34.253
35.132,34.22
35.111,34.187
35.098,34.153
35.091,34.118
35.091,34.084
35.096,34.049
35.106,34.015
35.121,33.98
35.139,33.946
35.158,33.913
35.179,33.881
35.199,33.851
35.219,33.823
35.236,33.797
35.252,33.774
35.265,33.754
35.276,33.737
35.285,33.723
35.291,33.713
35.294,33.705
35.295,33.702
35.293,33.702
35.289,33.705
35.282,33.71
35.274,33.716
35.263,33.723
35.25,33.731
35.236,33.739
35.222,33.748
35.208,33.757
35.195,33.764
35.182,33.77
35.17,33.772
35.156,33.772
35.142,33.769
35.126,33.764
35.108,33.755
35.088,33.743
35.066,33.728
35.04,33.707
35.012,33.682
34.981,33.653
34.947,33.619
34.91,33.582
34.871,33.543
34.83,33.501
34.787,33.458
34.742,33.413
34.695,33.367
34.647,33.323
34.598,33.282
34.549,33.244
34.501,33.207
34.455,33.172
34.41,33.144
34.367,33.126
34.327,33.124
34.29,33.144
34.257,33.191
34.227,33.269
34.2,33.382
34.177,33.532
34.158,33.722
34.14,33.951
34.125,34.217
34.111,34.517
34.099,34.847
34.087,35.203
34.076,35.578
34.066,35.967
34.056,36.363
34.046,36.76
34.037,37.149
34.028,37.526
34.019,37.884
34.008,38.221
33.995,38.531
33.98,38.813
33.961,39.065
33.939,39.285
33.914,39.473
33.889,39.627
33.864,39.748
33.839,39.837
33.814,39.896
33.79,39.925
33.769,39.928
33.749,39.907
33.732,39.866
33.718,39.806
33.706,39.732
33.698,39.645
33.692,39.549
33.687,39.445
33.682,39.336
33.677,39.223
33.672,39.109
33.666,38.995
33.661,38.885
33.659,38.779
33.666,38.68
33.682,38.587
33.705,38.501
33.733,38.42
33.763,38.346
33.793,38.276
33.819,38.212
33.839,38.153
33.852,38.097
33.857,38.044
33.854,37.994
33.842,37.946
33.823,37.899
33.798,37.853
33.767,37.807
33.734,37.759
33.699,37.709
33.664,37.659
33.63,37.607
33.599,37.555
33.571,37.502
33.546,37.45
33.527,37.397
33.512,37.345
33.502,37.294
33.497,37.244
33.497,37.197
33.503,37.153
33.513,37.113
33.529,37.076
33.55,37.044
33.579,37.015
33.614,36.99
33.658,36.967
33.712,36.947
33.776,36.93
33.852,36.916
33.942,36.904
34.045,36.894
34.16,36.885
34.288,36.875
34.429,36.864
34.581,36.851
34.743,36.836
34.914,36.818
35.092,36.799
35.274,36.777
35.459,36.752
35.645,36.724
35.828,36.691
36.006,36.654
36.176,36.612
36.337,36.565
36.486,36.514
36.619,36.46
36.737,36.403
36.836,36.343
36.917,36.281
36.98,36.218
37.024,36.152
37.049,36.085
37.057,36.017
37.048,35.948
37.023,35.878
36.984,35.807
36.933,35.735
36.873,35.664
36.804,35.592
36.728,35.52
36.648,35.448
36.564,35.377
36.479,35.307
36.396,35.237
36.315,35.169
36.239,35.102
36.169,35.036
36.106,34.971
36.05,34.906
36.002,34.843
35.96,34.781
35.925,34.72
35.895,34.66
35.871,34.603
35.85,34.547
35.831,34.494
35.814,34.443
35.798,34.393
35.78,34.346
35.76,34.3
35.739,34.258
35.714,34.219
35.687,34.183
35.657,34.151
35.624,34.122
35.588,34.096
35.549,34.074
35.51,34.054
35.47,34.036
35.43,34.021
35.393,34.008
35.358,33.997
35.327,33.987
35.3,33.979
35.28,33.971
35.265,33.964
35.257,33.958
35.256,33.952
35.261,33.944
35.272,33.937
35.288,33.93
35.309,33.923
35.334,33.915
35.363,33.905
35.393,33.895
35.424,33.883
35.454,33.87
35.482,33.855
35.506,33.839
35.527,33.821
35.543,33.801
35.554,33.78
35.56,33.757
35.561,33.731
35.557,33.702
35.549,33.669
35.537,33.635
35.521,33.598
35.501,33.559
35.479,33.519
35.454,33.479
35.427,33.438
35.399,33.398
35.369,33.361
35.339,33.328
35.308,33.301
35.277,33.282
35.245,33.275
35.214,33.281
35.182,33.303
35.151,33.346
35.12,33.412
35.089,33.502
35.057,33.621
35.026,33.769
34.994,33.947
34.96,34.156
34.926,34.394
34.89,34.658
34.853,34.946
34.814,35.255
34.775,35.581
34.733,35.918
34.69,36.263
34.647,36.609
34.604,36.953
34.562,37.288
34.521,37.611
34.483,37.916
34.446,38.201
34.411,38.461
34.379,38.695
34.351,38.901
34.325,39.076
34.303,39.221
34.283,39.336
34.267,39.42
34.253,39.475
34.243,39.503
34.235,39.506
34.229,39.485
34.225,39.444
34.222,39.385
34.219,39.312
34.215,39.226
34.21,39.131
34.204,39.029
34.195,38.922
34.184,38.813
34.17,38.705
34.155,38.598
34.138,38.496
34.118,38.399
34.097,38.309
34.075,38.226
34.052,38.151
34.029,38.083
34.007,38.023
33.987,37.968
33.969,37.919
33.954,37.873
33.942,37.83
33.933,37.789
33.927,37.747
33.923,37.705
33.923,37.661
33.925,37.615
33.93,37.564
33.938,37.51
33.948,37.451
33.96,37.39
33.972,37.326
33.984,37.261
33.994,37.195
34.002,37.129
34.007,37.064
34.009,37.002
34.007,36.942
34.001,36.886
33.991,36.834
33.978,36.786
33.961,36.742
33.94,36.702
33.916,36.668
33.889,36.638
33.86,36.612
33.829,36.59
33.798,36.572
33.767,36.557
33.736,36.544
33.706,36.532
33.679,36.522
33.655,36.512
33.635,36.501
33.62,36.489
33.609,36.476
33.604,36.46
33.606,36.442
33.616,36.421
33.634,36.398
33.661,36.373
33.698,36.347
33.745,36.321
33.803,36.294
33.875,36.266
33.961,36.236
34.06,36.204
34.172,36.168
34.298,36.127
34.438,36.082
34.589,36.033
34.752,35.978
34.924,35.92
35.103,35.857
35.287,35.791
35.475,35.722
35.665,35.65
35.854,35.576
36.04,35.501
36.221,35.426
36.395,35.351
36.56,35.276
36.713,35.201
36.853,35.127
36.978,35.053
37.087,34.979
37.181,34.906
37.258,34.833
37.318,34.76
37.362,34.689
37.389,34.618
37.401,34.549
37.398,34.481
37.381,34.415
37.35,34.351
37.308,34.289
37.256,34.229
37.194,34.172
37.125,34.117
37.05,34.065
36.972,34.015
36.891,33.968
36.811,33.925
36.733,33.885
36.657,33.85
36.584,33.819
36.516,33.793
36.453,33.771
36.396,33.752
36.345,33.738
36.301,33.726
36.262,33.715
36.231,33.707
36.205,33.7
36.184,33.695
36.166,33.691
36.151,33.687
36.137,33.684
36.123,33.682
36.107,33.681
36.09,33.682
36.071,33.683
36.048,33.684
36.022,33.684
35.994,33.682
35.963,33.678
35.931,33.671
35.897,33.661
35.862,33.648
35.827,33.632
35.793,33.614
35.761,33.593
35.732,33.569
35.707,33.543
35.686,33.515
35.669,33.485
35.657,33.455
35.65,33.423
35.648,33.391
35.651,33.358
35.658,33.325
35.669,33.291
35.684,33.259
35.703,33.226
35.724,33.194
35.747,33.163
35.772,33.134
35.795,33.105
35.817,33.077
35.837,33.05
35.852,33.023
35.862,32.995
35.868,32.968
35.868,32.94
35.864,32.913
35.855,32.887
35.841,32.861
35.822,32.837
35.798,32.815
35.771,32.797
35.739,32.784
35.704,32.778
35.666,32.782
35.626,32.798
35.585,32.828
35.544,32.876
35.503,32.943
35.463,33.033
35.424,33.149
35.387,33.293
35.351,33.466
35.318,33.668
35.287,33.9
35.257,34.159
35.227,34.443
35.199,34.748
35.171,35.071
35.142,35.41
35.113,35.758
35.082,36.113
35.048,36.469
35.011,36.822
34.973,37.166
34.932,37.498
34.89,37.812
34.846,38.105
34.8,38.374
34.753,38.617
34.706,38.831
34.66,39.017
34.615,39.172
34.571,39.297
34.528,39.393
34.489,39.46
34.452,39.499
34.418,39.511
34.388,39.499
34.361,39.464
34.339,39.411
34.321,39.341
34.307,39.259
34.297,39.168
34.29,39.07
34.285,38.967
34.282,38.863
34.281,38.757
34.281,38.651
34.28,38.548
34.279,38.45
34.275,38.357
34.269,38.271
34.26,38.192
34.247,38.12
34.232,38.054
34.214,37.994
34.193,37.943
34.169,37.907
34.144,37.882
34.118,37.866
34.092,37.854
34.067,37.84
34.042,37.819
34.02,37.789
33.999,37.745
33.981,37.688
33.966,37.617
33.955,37.534
33.948,37.441
33.944,37.34
33.944,37.236
33.947,37.13
33.954,37.026
33.963,36.925
33.972,36.83
33.983,36.742
33.992,36.662
34,36.593
34.006,36.534
34.008,36.487
34.007,36.452
34.001,36.428
33.991,36.414
33.976,36.408
33.958,36.408
33.936,36.415
33.91,36.425
33.882,36.438
33.853,36.453
33.825,36.468
33.796,36.483
33.769,36.496
33.741,36.505
33.715,36.509
33.691,36.509
33.67,36.502
33.653,36.491
33.64,36.475
33.632,36.453
33.631,36.426
33.636,36.393
33.65,36.353
33.675,36.306
33.711,36.251
33.76,36.191
33.824,36.124
33.903,36.052
33.998,35.976
34.11,35.896
34.237,35.814
34.38,35.73
34.538,35.645
34.708,35.559
34.89,35.473
35.079,35.387
35.273,35.302
35.471,35.219
35.67,35.139
35.868,35.061
36.062,34.985
36.251,34.911
36.431,34.839
36.602,34.769
36.762,34.702
36.908,34.637
37.04,34.576
37.157,34.517
37.259,34.461
37.345,34.407
37.415,34.354
37.47,34.304
37.508,34.256
37.531,34.21
37.539,34.166
37.533,34.125
37.514,34.085
37.484,34.048
37.441,34.011
37.388,33.976
37.326,33.942
37.257,33.91
37.182,33.88
37.102,33.852
37.021,33.825
36.938,33.801
36.856,33.779
36.776,33.757
36.697,33.738
36.622,33.719
36.552,33.702
36.487,33.685
36.428,33.669
36.375,33.653
36.329,33.636
36.289,33.618
36.255,33.599
36.226,33.579
36.203,33.559
36.183,33.538
36.165,33.517
36.149,33.495
36.132,33.473
36.115,33.452
36.097,33.431
36.077,33.413
36.054,33.397
36.028,33.382
36.001,33.37
35.971,33.359
35.939,33.349
35.907,33.339
35.873,33.329
35.841,33.319
35.81,33.309
35.783,33.298
35.76,33.287
35.739,33.275
35.723,33.263
35.71,33.25
35.703,33.236
35.701,33.22
35.703,33.202
35.711,33.181
35.722,33.157
35.737,33.128
35.756,33.096
35.778,33.06
35.801,33.02
35.826,32.978
35.85,32.934
35.875,32.889
35.897,32.843
35.916,32.798
35.93,32.754
35.939,32.712
35.942,32.674
35.94,32.641
35.932,32.615
35.917,32.6
35.896,32.599
35.868,32.614
35.836,32.65
35.798,32.709
35.758,32.796
35.714,32.912
35.669,33.06
35.622,33.242
35.575,33.456
35.528,33.701
35.482,33.975
35.438,34.276
35.395,34.599
35.353,34.939
35.314,35.294
35.277,35.656
35.243,36.022
35.211,36.385
35.181,36.739
35.152,37.08
35.123,37.404
35.095,37.707
35.065,37.986
35.034,38.236
35.002,38.457
34.967,38.646
34.932,38.804
34.894,38.93
34.854,39.024
34.813,39.089
34.77,39.125
34.727,39.135
34.683,39.12
34.64,39.082
34.598,39.024
34.558,38.947
34.521,38.856
34.487,38.751
34.456,38.637
34.429,38.516
34.405,38.391
34.384,38.263
34.366,38.136
34.351,38.011
34.339,37.891
34.33,37.775
34.322,37.666
34.316,37.563
34.312,37.467
34.309,37.378
34.306,37.297
34.302,37.222
34.297,37.152
34.291,37.087
34.285,37.024
34.277,36.964
34.267,36.905
34.255,36.847
34.24,36.788
34.224,36.73
34.207,36.671
34.19,36.613
34.172,36.556
34.154,36.5
34.136,36.447
34.12,36.396
34.106,36.348
34.096,36.304
34.09,36.264
34.087,36.229
34.086,36.199
34.087,36.174
34.089,36.154
34.092,36.139
34.095,36.128
34.099,36.12
34.102,36.115
34.104,36.113
34.105,36.113
34.105,36.114
34.103,36.116
34.099,36.118
34.093,36.12
34.085,36.121
34.076,36.121
34.066,36.12
34.056,36.117
34.048,36.111
34.043,36.103
34.043,36.091
34.051,36.075
34.069,36.054
34.098,36.027
34.142,35.994
34.2,35.957
34.276,35.915
34.37,35.869
34.482,35.82
34.615,35.768
34.765,35.714
34.932,35.658
35.114,35.6
35.308,35.542
35.511,35.482
35.72,35.421
35.931,35.36
36.14,35.297
36.345,35.233
36.542,35.167
36.727,35.101
36.897,35.035
37.051,34.968
37.187,34.9
37.303,34.833
37.4,34.766
37.477,34.7
37.532,34.635
37.568,34.571
37.585,34.508
37.585,34.445
37.569,34.382
37.54,34.321
37.498,34.26
37.446,34.199
37.386,34.14
37.32,34.082
37.249,34.025
37.175,33.97
37.1,33.917
37.025,33.865
36.953,33.815
36.882,33.766
36.814,33.719
36.75,33.673
36.688,33.63
36.629,33.588
36.573,33.549
36.519,33.514
36.467,33.483
36.416,33.456
36.366,33.432
36.315,33.413
36.265,33.398
36.213,33.386
36.161,33.378
36.109,33.373
36.057,33.37
36.005,33.368
35.954,33.368
35.902,33.367
35.852,33.366
35.804,33.363
35.759,33.36
35.718,33.356
35.682,33.351
35.652,33.345
35.628,33.338
35.611,33.33
35.601,33.323
35.6,33.316
35.606,33.309
35.619,33.301
35.638,33.293
35.661,33.284
35.689,33.274
35.718,33.262
35.749,33.248
35.78,33.233
35.81,33.216
35.837,33.197
35.861,33.176
35.882,33.153
35.899,33.129
35.911,33.102
35.921,33.073
35.926,33.042
35.928,33.01
35.927,32.977
35.924,32.944
35.919,32.91
35.914,32.876
35.908,32.843
35.902,32.81
35.897,32.778
35.891,32.747
35.884,32.716
35.875,32.686
35.865,32.657
35.852,32.629
35.837,32.601
35.819,32.575
35.798,32.552
35.775,32.532
35.748,32.518
35.718,32.511
35.684,32.514
35.646,32.53
35.603,32.561
35.557,32.611
35.507,32.682
35.454,32.778
35.397,32.901
35.338,33.052
35.277,33.232
35.216,33.439
35.155,33.673
35.095,33.931
35.037,34.211
34.982,34.509
34.931,34.821
34.884,35.143
34.842,35.47
34.803,35.797
34.768,36.119
34.738,36.431
34.711,36.729
34.687,37.009
34.666,37.268
34.648,37.505
34.63,37.717
34.613,37.903
34.595,38.062
34.576,38.194
34.555,38.299
34.532,38.375
34.507,38.425
34.482,38.449
34.456,38.45
34.429,38.429
34.401,38.39
34.374,38.335
34.348,38.266
34.323,38.185
34.3,38.094
34.278,37.996
34.258,37.892
34.24,37.784
34.223,37.673
34.209,37.562
34.197,37.452
34.187,37.346
34.179,37.243
34.173,37.145
34.169,37.052
34.168,36.963
34.168,36.878
34.169,36.797
34.172,36.718
34.175,36.644
34.178,36.571
34.182,36.501
34.184,36.432
34.184,36.364
34.183,36.296
34.179,36.228
34.174,36.16
34.166,36.093
34.155,36.026
34.141,35.962
34.124,35.899
34.103,35.84
34.08,35.786
34.055,35.736
34.029,35.693
34.002,35.655
33.975,35.624
33.948,35.599
33.925,35.582
33.904,35.573
33.89,35.571
33.881,35.576
33.881,35.588
33.89,35.604
33.91,35.624
33.944,35.649
33.992,35.676
34.056,35.705
34.136,35.735
34.233,35.766
34.348,35.796
34.481,35.825
34.629,35.85
34.793,35.873
34.968,35.89
35.155,35.903
35.349,35.91
35.549,35.911
35.752,35.906
35.954,35.896
36.154,35.879
36.348,35.857
36.536,35.827
36.713,35.792
36.88,35.751
37.034,35.706
37.175,35.656
37.301,35.602
37.413,35.544
37.509,35.484
37.589,35.422
37.653,35.358
37.701,35.292
37.734,35.223
37.75,35.151
37.753,35.076
37.741,34.999
37.717,34.92
37.681,34.839
37.634,34.754
37.578,34.668
37.512,34.579
37.44,34.491
37.361,34.403
37.276,34.317
37.187,34.234
37.095,34.153
37.003,34.076
36.912,34.002
36.823,33.931
36.737,33.865
36.654,33.803
36.576,33.746
36.504,33.695
36.439,33.649
36.38,33.607
36.328,33.57
36.281,33.538
36.24,33.511
36.204,33.487
36.17,33.466
36.137,33.448
36.104,33.434
36.071,33.422
36.038,33.411
36.003,33.401
35.967,33.392
35.931,33.384
35.894,33.376
35.856,33.369
35.819,33.362
35.784,33.356
35.753,33.35
35.725,33.344
35.7,33.339
35.681,33.333
35.667,33.328
35.657,33.322
35.651,33.317
35.65,33.31
35.656,33.303
35.669,33.293
35.691,33.281
35.719,33.267
35.756,33.252
35.804,33.235
35.867,33.219
35.941,33.201
36.021,33.184
36.102,33.166
36.178,33.147
36.242,33.128
36.293,33.111
36.327,33.094
36.342,33.078
36.339,33.064
36.318,33.052
36.281,33.04
36.229,33.029
36.166,33.018
36.093,33.006
36.013,32.993
35.929,32.98
35.844,32.966
35.759,32.951
35.677,32.935
35.598,32.918
35.523,32.899
35.453,32.881
35.389,32.862
35.331,32.845
35.278,32.831
35.23,32.822
35.187,32.822
35.147,32.832
35.112,32.855
35.079,32.895
35.05,32.954
35.021,33.035
34.994,33.142
34.967,33.274
34.939,33.433
34.91,33.618
34.879,33.828
34.845,34.062
34.808,34.317
34.769,34.59
34.728,34.877
34.685,35.174
34.64,35.477
34.593,35.782
34.545,36.083
34.498,36.376
34.451,36.657
34.404,36.924
34.358,37.173
34.313,37.402
34.269,37.61
34.228,37.794
34.191,37.955
34.158,38.091
34.129,38.202
34.104,38.287
34.083,38.346
34.066,38.382
34.053,38.393
34.044,38.383
34.039,38.353
34.036,38.306
34.035,38.241
34.037,38.163
34.04,38.072
34.043,37.971
34.046,37.861
34.047,37.746
34.046,37.627
34.043,37.505
34.037,37.383
34.028,37.264
34.015,37.147
33.999,37.035
33.982,36.927
33.964,36.824
33.945,36.727
33.926,36.634
33.907,36.544
33.889,36.458
33.872,36.374
33.857,36.291
33.844,36.208
33.834,36.123
33.825,36.037
33.819,35.951
33.816,35.866
33.815,35.784
33.817,35.704
33.82,35.628
33.824,35.558
33.829,35.495
33.834,35.439
33.84,35.393
33.845,35.356
33.85,35.33
33.854,35.314
33.859,35.308
33.864,35.312
33.872,35.325
33.884,35.345
33.902,35.372
33.928,35.404
33.965,35.44
34.015,35.479
34.08,35.519
34.163,35.56
34.264,35.602
34.383,35.642
34.522,35.68
34.678,35.715
34.852,35.747
35.04,35.775
35.24,35.798
35.448,35.818
35.662,35.832
35.878,35.84
36.095,35.842
36.307,35.838
36.512,35.826
36.705,35.807
36.886,35.781
37.05,35.748
37.196,35.709
37.323,35.663
37.428,35.612
37.514,35.556
37.578,35.496
37.622,35.432
37.645,35.365
37.649,35.294
37.636,35.22
37.606,35.143
37.563,35.065
37.508,34.985
37.442,34.903
37.369,34.82
37.289,34.734
37.207,34.648
37.123,34.563
37.039,34.478
36.959,34.395
36.883,34.314
36.813,34.236
36.749,34.161
36.691,34.091
36.639,34.025
36.592,33.963
36.551,33.905
36.512,33.852
36.476,33.803
36.44,33.759
36.404,33.718
36.368,33.68
36.331,33.645
36.292,33.611
36.252,33.58
36.21,33.549
36.165,33.521
36.118,33.494
36.07,33.468
36.022,33.444
35.973,33.42
35.924,33.398
35.876,33.376
35.831,33.355
35.789,33.335
35.752,33.315
35.721,33.295
35.696,33.276
35.678,33.256
35.667,33.237
35.662,33.219
35.663,33.2
35.669,33.182
35.679,33.164
35.691,33.148
35.705,33.131
35.72,33.115
35.735,33.1
35.749,33.085
35.763,33.071
35.776,33.058
35.787,33.046
35.797,33.036
35.803,33.027
35.808,33.02
35.809,33.015
35.808,33.011
35.804,33.009
35.798,33.008
35.788,33.008
35.776,33.007
35.762,33.006
35.747,33.005
35.731,33.002
35.715,32.998
35.697,32.991
35.679,32.982
35.662,32.972
35.644,32.96
35.627,32.946
35.609,32.931
35.59,32.914
35.569,32.895
35.545,32.875
35.519,32.853
35.488,32.828
35.454,32.802
35.417,32.775
35.376,32.748
35.332,32.724
35.285,32.702
35.235,32.686
35.184,32.679
35.13,32.683
35.076,32.702
35.02,32.739
34.964,32.797
34.907,32.879
34.851,32.988
34.796,33.125
34.744,33.294
34.695,33.492
34.65,33.721
34.609,33.978
34.571,34.262
34.536,34.57
34.506,34.897
34.479,35.24
34.455,35.591
34.434,35.946
34.414,36.299
34.396,36.643
34.378,36.974
34.361,37.287
34.343,37.578
34.326,37.844
34.309,38.083
34.29,38.292
34.271,38.472
34.249,38.623
34.226,38.743
34.2,38.835
34.173,38.899
34.145,38.937
34.117,38.95
34.089,38.94
34.061,38.909
34.035,38.86
34.011,38.795
33.99,38.715
33.972,38.622
33.959,38.518
33.949,38.406
33.941,38.288
33.937,38.165
33.937,38.038
33.939,37.91
33.944,37.782
33.951,37.655
33.959,37.532
33.966,37.412
33.973,37.297
33.979,37.187
33.983,37.082
33.985,36.983
33.982,36.888
33.976,36.798
33.966,36.712
33.953,36.629
33.936,36.549
33.915,36.472
33.891,36.398
33.865,36.327
33.839,36.259
33.812,36.193
33.786,36.132
33.76,36.074
33.737,36.022
33.718,35.975
33.704,35.935
33.699,35.902
33.704,35.876
33.721,35.857
33.754,35.846
33.803,35.841
33.872,35.843
33.961,35.85
34.07,35.862
34.199,35.879
34.346,35.901
34.511,35.927
34.691,35.957
34.885,35.99
35.088,36.026
35.298,36.061
35.511,36.097
35.722,36.13
35.93,36.16
36.13,36.187
36.321,36.21
36.499,36.229
36.662,36.242
36.809,36.248
36.939,36.248
37.049,36.241
37.141,36.227
37.213,36.205
37.269,36.176
37.309,36.141
37.333,36.099
37.344,36.052
37.342,36
37.33,35.942
37.308,35.879
37.28,35.811
37.244,35.738
37.203,35.66
37.156,35.579
37.105,35.495
37.048,35.41
36.988,35.324
36.924,35.237
36.857,35.15
36.789,35.063
36.72,34.977
36.651,34.892
36.582,34.809
36.515,34.729
36.45,34.652
36.389,34.578
36.331,34.508
36.276,34.441
36.225,34.376
36.178,34.313
36.134,34.253
36.093,34.195
36.056,34.139
36.022,34.086
35.991,34.035
35.964,33.987
35.94,33.94
35.919,33.895
35.9,33.851
35.884,33.809
35.869,33.768
35.855,33.729
35.841,33.691
35.827,33.654
35.812,33.618
35.797,33.582
35.78,33.547
35.764,33.511
35.747,33.476
35.732,33.442
35.717,33.408
35.704,33.376
35.692,33.346
35.682,33.318
35.675,33.291
35.67,33.265
35.666,33.241
35.665,33.219
35.666,33.199
35.671,33.182
35.678,33.168
35.687,33.155
35.699,33.144
35.712,33.135
35.727,33.127
35.743,33.121
35.76,33.116
35.776,33.111
35.79,33.108
35.8,33.106
35.807,33.104
35.81,33.102
35.808,33.101
35.801,33.099
35.788,33.098
35.769,33.097
35.745,33.097
35.713,33.096
35.675,33.094
35.632,33.091
35.585,33.085
35.534,33.078
35.481,33.07
35.426,33.06
35.37,33.049
35.314,33.035
35.26,33.018
35.207,32.995
35.157,32.969
35.111,32.938
35.067,32.903
35.025,32.867
34.987,32.829
34.951,32.79
34.918,32.752
34.887,32.714
34.858,32.678
34.832,32.644
34.808,32.612
34.784,32.585
34.762,32.566
34.739,32.558
34.716,32.564
34.692,32.587
34.666,32.631
34.639,32.698
34.609,32.792
34.576,32.915
34.542,33.069
34.506,33.255
34.471,33.473
34.435,33.723
34.399,34.001
34.364,34.305
34.329,34.629
34.297,34.97
34.267,35.323
34.24,35.682
34.217,36.043
34.198,36.399
34.184,36.748
34.175,37.084
34.17,37.403
34.17,37.701
34.174,37.975
34.181,38.222
34.19,38.441
34.2,38.629
34.21,38.786
34.221,38.914
34.231,39.012
34.239,39.082
34.244,39.124
34.246,39.141
34.244,39.134
34.239,39.104
34.229,39.055
34.216,38.986
34.198,38.902
34.178,38.804
34.156,38.696
34.132,38.579
34.106,38.456
34.08,38.33
34.055,38.201
34.031,38.072
34.01,37.943
33.991,37.816
33.976,37.691
33.965,37.569
33.958,37.451
33.955,37.339
33.956,37.233
33.962,37.134
33.971,37.043
33.984,36.958
34.001,36.878
34.022,36.804
34.05,36.733
34.085,36.665
34.129,36.599
34.182,36.536
34.247,36.475
34.324,36.415
34.413,36.357
34.514,36.301
34.628,36.248
34.755,36.198
34.895,36.153
35.046,36.112
35.208,36.078
35.379,36.051
35.556,36.031
35.739,36.018
35.926,36.012
36.112,36.013
36.297,36.02
36.476,36.031
36.647,36.047
36.808,36.066
36.957,36.089
37.093,36.115
37.214,36.142
37.319,36.169
37.405,36.196
37.474,36.222
37.523,36.244
37.554,36.263
37.567,36.276
37.562,36.285
37.541,36.289
37.505,36.289
37.455,36.283
37.394,36.271
37.322,36.254
37.243,36.232
37.159,36.203
37.072,36.169
36.983,36.129
36.893,36.084
36.805,36.035
36.72,35.981
36.639,35.923
36.563,35.862
36.494,35.797
36.43,35.73
36.374,35.661
36.324,35.591
36.282,35.52
36.245,35.447
36.212,35.374
36.182,35.302
36.154,35.229
36.126,35.156
36.098,35.084
36.068,35.013
36.035,34.942
36.001,34.872
35.965,34.803
35.928,34.736
35.89,34.671
35.853,34.606
35.816,34.542
35.779,34.48
35.745,34.419
35.713,34.36
35.685,34.302
35.66,34.246
35.64,34.191
35.626,34.137
35.618,34.084
35.616,34.032
35.621,33.981
35.63,33.933
35.645,33.887
35.665,33.845
35.689,33.806
35.716,33.771
35.746,33.738
35.776,33.707
35.807,33.677
35.837,33.647
35.864,33.618
35.887,33.589
35.907,33.557
35.922,33.524
35.932,33.49
35.938,33.455
35.939,33.419
35.935,33.383
35.926,33.349
35.912,33.317
35.894,33.288
35.872,33.264
35.845,33.245
35.815,33.23
35.781,33.218
35.746,33.21
35.709,33.205
35.673,33.203
35.638,33.202
35.603,33.203
35.569,33.205
35.536,33.207
35.503,33.208
35.471,33.21
35.44,33.211
35.409,33.212
35.378,33.212
35.348,33.21
35.317,33.208
35.286,33.203
35.253,33.195
35.219,33.183
35.182,33.168
35.145,33.15
35.105,33.127
35.063,33.102
35.019,33.074
34.973,33.043
34.927,33.01
34.882,32.976
34.838,32.94
34.794,32.903
34.753,32.866
34.714,32.828
34.679,32.791
34.648,32.754
34.62,32.716
34.597,32.679
34.577,32.642
34.56,32.608
34.547,32.577
34.538,32.55
34.531,32.53
34.527,32.52
34.524,32.521
34.523,32.538
34.522,32.573
34.52,32.63
34.517,32.711
34.513,32.82
34.507,32.958
34.499,33.128
34.49,33.328
34.479,33.559
34.466,33.819
34.451,34.105
34.435,34.415
34.417,34.744
34.4,35.088
34.382,35.443
34.364,35.803
34.348,36.161
34.332,36.514
34.318,36.855
34.306,37.18
34.296,37.486
34.288,37.769
34.283,38.026
34.278,38.256
34.276,38.456
34.275,38.626
34.275,38.767
34.276,38.878
34.276,38.961
34.275,39.017
34.273,39.049
34.268,39.056
34.26,39.042
34.25,39.009
34.237,38.957
34.222,38.89
34.206,38.808
34.189,38.715
34.172,38.612
34.157,38.499
34.146,38.379
34.14,38.253
34.142,38.124
34.154,37.994
34.178,37.865
34.216,37.739
34.27,37.618
34.341,37.502
34.431,37.392
34.541,37.289
34.67,37.193
34.819,37.103
34.985,37.02
35.168,36.943
35.365,36.87
35.573,36.801
35.789,36.735
36.008,36.672
36.228,36.61
36.443,36.55
36.65,36.492
36.845,36.435
37.025,36.38
37.187,36.327
37.331,36.279
37.454,36.235
37.557,36.196
37.638,36.163
37.699,36.137
37.74,36.117
37.763,36.103
37.768,36.095
37.757,36.093
37.734,36.096
37.699,36.104
37.654,36.115
37.602,36.131
37.544,36.148
37.482,36.167
37.418,36.187
37.354,36.207
37.291,36.225
37.23,36.242
37.171,36.257
37.115,36.268
37.061,36.276
37.01,36.279
36.961,36.278
36.914,36.273
36.869,36.264
36.825,36.258
36.783,36.256
36.741,36.259
36.699,36.266
36.658,36.273
36.616,36.277
36.574,36.273
36.531,36.258
36.488,36.231
36.443,36.192
36.399,36.14
36.354,36.076
36.311,36.002
36.27,35.919
36.231,35.829
36.196,35.735
36.165,35.639
36.138,35.542
36.118,35.446
36.103,35.353
36.094,35.264
36.09,35.179
36.092,35.099
36.098,35.022
36.107,34.949
36.119,34.879
36.131,34.813
36.143,34.749
36.156,34.687
36.167,34.627
36.178,34.568
36.187,34.508
36.195,34.447
36.201,34.385
36.205,34.322
36.208,34.258
36.208,34.193
36.206,34.128
36.203,34.062
36.199,33.999
36.194,33.936
36.188,33.876
36.181,33.819
36.173,33.764
36.165,33.712
36.156,33.664
36.148,33.62
36.14,33.579
36.131,33.542
36.121,33.509
36.109,33.479
36.093,33.452
36.074,33.428
36.051,33.407
36.024,33.39
35.992,33.376
35.956,33.366
35.916,33.36
35.871,33.355
35.823,33.354
35.771,33.354
35.717,33.356
35.662,33.359
35.605,33.362
35.546,33.365
35.487,33.369
35.427,33.373
35.367,33.377
35.309,33.38
35.253,33.382
35.201,33.383
35.151,33.383
35.106,33.381
35.066,33.378
35.03,33.373
35,33.365
34.975,33.353
34.954,33.339
34.936,33.321
34.92,33.299
34.905,33.274
34.89,33.246
34.875,33.216
34.858,33.184
34.838,33.15
34.816,33.115
34.791,33.079
34.764,33.042
34.734,33.006
34.7,32.972
34.665,32.942
34.629,32.918
34.593,32.9
34.557,32.891
