Trial 1:0back,Trial 6:0back,,,
34.993,33.946,,,
35.39,33.925,,,
35.805,33.906,,,
36.232,33.888,,,
36.664,33.871,,,
37.097,33.856,,,
37.525,33.841,,,
37.944,33.828,,,
38.348,33.815,,,
38.735,33.804,,,
39.102,33.793,,,
39.446,33.783,,,
39.764,33.772,,,
40.055,33.761,,,
40.319,33.75,,,
40.555,33.739,,,
40.763,33.727,,,
40.943,33.716,,,
41.096,33.705,,,
41.224,33.695,,,
41.327,33.687,,,
41.406,33.681,,,
41.462,33.677,,,
41.496,33.677,,,
41.51,33.682,,,
41.504,33.694,,,
41.481,33.713,,,
41.441,33.743,,,
41.386,33.784,,,
41.317,33.839,,,
41.235,33.909,,,
41.142,33.995,,,
41.039,34.099,,,
40.927,34.219,,,
40.807,34.356,,,
40.681,34.508,,,
40.549,34.675,,,
40.413,34.854,,,
40.274,35.043,,,
40.134,35.24,,,
39.992,35.443,,,
39.85,35.648,,,
39.708,35.853,,,
39.566,36.056,,,
39.426,36.253,,,
39.286,36.443,,,
39.147,36.623,,,
39.009,36.792,,,
38.872,36.948,,,
38.736,37.089,,,
38.6,37.216,,,
38.463,37.328,,,
38.327,37.424,,,
38.19,37.505,,,
38.053,37.571,,,
37.917,37.624,,,
37.782,37.662,,,
37.649,37.687,,,
37.52,37.7,,,
37.396,37.701,,,
37.277,37.692,,,
37.164,37.673,,,
37.059,37.646,,,
36.962,37.611,,,
36.873,37.571,,,
36.793,37.527,,,
36.722,37.479,,,
36.661,37.428,,,
36.608,37.373,,,
36.563,37.316,,,
36.526,37.256,,,
36.497,37.196,,,
36.475,37.135,,,
36.46,37.075,,,
36.45,37.015,,,
36.445,36.957,,,
36.443,36.901,,,
36.444,36.848,,,
36.447,36.796,,,
36.452,36.747,,,
36.458,36.7,,,
36.464,36.655,,,
36.471,36.612,,,
36.476,36.569,,,
36.479,36.528,,,
36.481,36.487,,,
36.48,36.446,,,
36.476,36.405,,,
36.468,36.363,,,
36.457,36.322,,,
36.442,36.281,,,
36.421,36.241,,,
36.395,36.202,,,
36.365,36.166,,,
36.329,36.132,,,
36.289,36.101,,,
36.244,36.072,,,
36.194,36.044,,,
36.139,36.018,,,
36.081,35.993,,,
36.02,35.969,,,
35.957,35.947,,,
35.891,35.926,,,
35.823,35.908,,,
35.754,35.892,,,
35.684,35.88,,,
35.613,35.872,,,
35.541,35.868,,,
35.469,35.869,,,
35.396,35.874,,,
35.323,35.885,,,
35.25,35.9,,,
35.177,35.918,,,
35.103,35.939,,,
35.03,35.961,,,
34.955,35.983,,,
34.881,36.004,,,
34.805,36.022,,,
34.729,36.039,,,
34.653,36.052,,,
34.577,36.062,,,
34.501,36.069,,,
34.426,36.074,,,
34.351,36.075,,,
34.278,36.074,,,
34.207,36.07,,,
34.137,36.065,,,
34.069,36.056,,,
34.001,36.046,,,
33.933,36.033,,,
33.866,36.019,,,
33.8,36.002,,,
33.734,35.985,,,
33.668,35.966,,,
33.603,35.945,,,
33.539,35.922,,,
33.475,35.897,,,
33.413,35.87,,,
33.352,35.841,,,
33.292,35.811,,,
33.234,35.778,,,
33.177,35.744,,,
33.122,35.709,,,
33.067,35.672,,,
33.014,35.634,,,
32.961,35.595,,,
32.91,35.556,,,
32.859,35.517,,,
32.809,35.479,,,
32.76,35.441,,,
32.711,35.405,,,
32.663,35.37,,,
32.615,35.335,,,
32.567,35.301,,,
32.519,35.267,,,
32.471,35.233,,,
32.423,35.199,,,
32.376,35.164,,,
32.329,35.13,,,
32.286,35.094,,,
32.248,35.058,,,
32.219,35.02,,,
32.202,34.982,,,
32.203,34.945,,,
32.225,34.907,,,
32.274,34.87,,,
32.353,34.834,,,
32.467,34.799,,,
32.617,34.765,,,
32.804,34.732,,,
33.031,34.7,,,
33.295,34.669,,,
33.595,34.639,,,
33.929,34.611,,,
34.293,34.583,,,
34.682,34.555,,,
35.091,34.528,,,
35.514,34.502,,,
35.945,34.476,,,
36.379,34.45,,,
36.811,34.424,,,
37.234,34.398,,,
37.646,34.372,,,
38.041,34.346,,,
38.417,34.32,,,
38.77,34.294,,,
39.1,34.268,,,
39.404,34.244,,,
39.681,34.22,,,
39.932,34.198,,,
40.155,34.178,,,
40.351,34.161,,,
40.52,34.145,,,
40.662,34.132,,,
40.778,34.119,,,
40.867,34.108,,,
40.932,34.097,,,
40.972,34.086,,,
40.989,34.074,,,
40.985,34.062,,,
40.961,34.047,,,
40.918,34.032,,,
40.858,34.014,,,
40.782,33.995,,,
40.69,33.973,,,
40.585,33.95,,,
40.467,33.926,,,
40.338,33.901,,,
40.199,33.875,,,
40.051,33.85,,,
39.897,33.826,,,
39.737,33.802,,,
39.575,33.781,,,
39.41,33.762,,,
39.245,33.748,,,
39.081,33.74,,,
38.917,33.741,,,
38.753,33.753,,,
38.589,33.778,,,
38.426,33.817,,,
38.262,33.874,,,
38.097,33.949,,,
37.932,34.044,,,
37.765,34.158,,,
37.599,34.29,,,
37.434,34.44,,,
37.27,34.605,,,
37.108,34.785,,,
36.951,34.977,,,
36.797,35.18,,,
36.65,35.391,,,
36.509,35.608,,,
36.375,35.828,,,
36.249,36.047,,,
36.13,36.264,,,
36.02,36.476,,,
35.918,36.68,,,
35.825,36.874,,,
35.74,37.056,,,
35.665,37.223,,,
35.599,37.375,,,
35.542,37.511,,,
35.494,37.63,,,
35.454,37.731,,,
35.422,37.816,,,
35.398,37.886,,,
35.382,37.94,,,
35.372,37.979,,,
35.368,38.005,,,
35.368,38.019,,,
35.373,38.022,,,
35.381,38.014,,,
35.392,37.998,,,
35.404,37.974,,,
35.417,37.943,,,
35.43,37.905,,,
35.443,37.862,,,
35.454,37.815,,,
35.463,37.764,,,
35.471,37.711,,,
35.476,37.655,,,
35.478,37.598,,,
35.476,37.54,,,
35.47,37.482,,,
35.46,37.425,,,
35.446,37.368,,,
35.427,37.311,,,
35.403,37.255,,,
35.374,37.2,,,
35.341,37.146,,,
35.303,37.093,,,
35.261,37.04,,,
35.216,36.99,,,
35.167,36.941,,,
35.115,36.893,,,
35.061,36.847,,,
35.004,36.802,,,
34.944,36.759,,,
34.882,36.716,,,
34.818,36.674,,,
34.752,36.632,,,
34.684,36.591,,,
34.615,36.55,,,
34.543,36.51,,,
34.471,36.469,,,
34.398,36.427,,,
34.325,36.386,,,
34.251,36.345,,,
34.178,36.305,,,
34.105,36.266,,,
34.033,36.229,,,
33.96,36.195,,,
33.888,36.165,,,
33.816,36.137,,,
33.744,36.114,,,
33.672,36.095,,,
33.6,36.081,,,
33.528,36.071,,,
33.456,36.066,,,
33.386,36.066,,,
33.317,36.07,,,
33.249,36.078,,,
33.183,36.09,,,
33.117,36.104,,,
33.053,36.121,,,
32.989,36.138,,,
32.926,36.157,,,
32.864,36.176,,,
32.802,36.193,,,
32.74,36.21,,,
32.679,36.225,,,
32.618,36.238,,,
32.557,36.248,,,
32.497,36.256,,,
32.438,36.26,,,
32.38,36.26,,,
32.323,36.258,,,
32.268,36.252,,,
32.214,36.243,,,
32.162,36.232,,,
32.111,36.218,,,
32.062,36.202,,,
32.014,36.182,,,
31.967,36.16,,,
31.92,36.135,,,
31.874,36.108,,,
31.828,36.079,,,
31.782,36.049,,,
31.736,36.018,,,
31.689,35.986,,,
31.64,35.953,,,
31.591,35.919,,,
31.541,35.885,,,
31.491,35.849,,,
31.441,35.812,,,
31.395,35.775,,,
31.355,35.737,,,
31.324,35.699,,,
31.305,35.66,,,
31.303,35.621,,,
31.322,35.581,,,
31.367,35.54,,,
31.444,35.498,,,
31.555,35.454,,,
31.704,35.409,,,
31.892,35.362,,,
32.122,35.314,,,
32.391,35.264,,,
32.699,35.214,,,
33.042,35.163,,,
33.416,35.112,,,
33.817,35.062,,,
34.239,35.014,,,
34.677,34.968,,,
35.123,34.925,,,
35.572,34.884,,,
36.018,34.845,,,
36.456,34.809,,,
36.881,34.776,,,
37.288,34.744,,,
37.674,34.713,,,
38.035,34.684,,,
38.37,34.654,,,
38.675,34.625,,,
38.951,34.596,,,
39.196,34.567,,,
39.411,34.538,,,
39.596,34.508,,,
39.751,34.478,,,
39.878,34.449,,,
39.978,34.419,,,
40.051,34.389,,,
40.1,34.359,,,
40.125,34.329,,,
40.129,34.3,,,
40.112,34.27,,,
40.076,34.242,,,
40.022,34.214,,,
39.953,34.188,,,
39.869,34.163,,,
39.772,34.139,,,
39.664,34.117,,,
39.546,34.097,,,
39.419,34.076,,,
39.285,34.055,,,
39.144,34.035,,,
38.998,34.014,,,
38.847,33.993,,,
38.693,33.972,,,
38.534,33.952,,,
38.373,33.933,,,
38.209,33.916,,,
38.043,33.901,,,
37.876,33.887,,,
37.706,33.873,,,
37.536,33.861,,,
37.365,33.849,,,
37.194,33.837,,,
37.023,33.825,,,
36.853,33.813,,,
36.685,33.802,,,
36.52,33.79,,,
36.359,33.781,,,
36.203,33.774,,,
36.053,33.773,,,
35.908,33.777,,,
35.77,33.79,,,
35.641,33.814,,,
35.52,33.853,,,
35.409,33.909,,,
35.309,33.984,,,
35.22,34.079,,,
35.143,34.195,,,
35.077,34.332,,,
35.023,34.49,,,
34.981,34.667,,,
34.95,34.863,,,
34.931,35.073,,,
34.922,35.296,,,
34.922,35.528,,,
34.931,35.765,,,
34.946,36.004,,,
34.968,36.241,,,
34.995,36.474,,,
35.025,36.699,,,
35.058,36.915,,,
35.093,37.12,,,
35.128,37.311,,,
35.162,37.488,,,
35.195,37.65,,,
35.225,37.794,,,
35.253,37.921,,,
35.278,38.031,,,
35.299,38.124,,,
35.316,38.202,,,
35.328,38.264,,,
35.334,38.312,,,
35.336,38.347,,,
35.331,38.369,,,
35.322,38.379,,,
35.306,38.379,,,
35.286,38.369,,,
35.261,38.35,,,
35.231,38.324,,,
35.197,38.291,,,
35.158,38.253,,,
35.115,38.209,,,
35.068,38.16,,,
35.018,38.106,,,
34.965,38.048,,,
34.91,37.986,,,
34.853,37.92,,,
34.795,37.851,,,
34.737,37.781,,,
34.678,37.709,,,
34.619,37.637,,,
34.559,37.565,,,
34.5,37.493,,,
34.439,37.423,,,
34.378,37.355,,,
34.316,37.29,,,
34.252,37.227,,,
34.187,37.166,,,
34.121,37.106,,,
34.054,37.048,,,
33.987,36.991,,,
33.92,36.934,,,
33.852,36.877,,,
33.785,36.819,,,
33.718,36.76,,,
33.651,36.702,,,
33.585,36.643,,,
33.519,36.584,,,
33.454,36.526,,,
33.391,36.469,,,
33.329,36.414,,,
33.269,36.362,,,
33.21,36.313,,,
33.153,36.267,,,
33.097,36.226,,,
33.043,36.19,,,
32.99,36.158,,,
32.939,36.131,,,
32.888,36.108,,,
32.839,36.09,,,
32.79,36.076,,,
32.741,36.066,,,
32.692,36.058,,,
32.643,36.054,,,
32.592,36.052,,,
32.542,36.053,,,
32.49,36.057,,,
32.437,36.063,,,
32.384,36.07,,,
32.33,36.079,,,
32.275,36.089,,,
32.22,36.099,,,
32.165,36.11,,,
32.109,36.121,,,
32.053,36.131,,,
31.997,36.14,,,
31.941,36.148,,,
31.886,36.154,,,
31.83,36.157,,,
31.776,36.158,,,
31.723,36.155,,,
31.674,36.149,,,
31.631,36.141,,,
31.597,36.13,,,
31.576,36.117,,,
31.572,36.101,,,
31.59,36.083,,,
31.634,36.063,,,
31.709,36.041,,,
31.817,36.017,,,
31.962,35.99,,,
32.146,35.961,,,
32.368,35.93,,,
32.629,35.896,,,
32.925,35.861,,,
33.254,35.824,,,
33.612,35.786,,,
33.994,35.747,,,
34.393,35.708,,,
34.804,35.668,,,
35.22,35.629,,,
35.637,35.59,,,
36.048,35.55,,,
36.448,35.511,,,
36.833,35.472,,,
37.199,35.432,,,
37.542,35.391,,,
37.861,35.35,,,
38.153,35.308,,,
38.416,35.265,,,
38.651,35.223,,,
38.855,35.18,,,
39.03,35.138,,,
39.175,35.096,,,
39.292,35.054,,,
39.381,35.011,,,
39.444,34.968,,,
39.482,34.924,,,
39.496,34.881,,,
39.49,34.838,,,
39.463,34.795,,,
39.419,34.753,,,
39.357,34.712,,,
39.281,34.673,,,
39.191,34.636,,,
39.09,34.601,,,
38.979,34.568,,,
38.859,34.537,,,
38.731,34.507,,,
38.595,34.477,,,
38.453,34.449,,,
38.306,34.42,,,
38.155,34.392,,,
38.001,34.364,,,
37.844,34.336,,,
37.685,34.307,,,
37.526,34.278,,,
37.366,34.249,,,
37.207,34.22,,,
37.048,34.191,,,
36.89,34.162,,,
36.734,34.135,,,
36.579,34.108,,,
36.426,34.083,,,
36.274,34.058,,,
36.124,34.035,,,
35.976,34.013,,,
35.83,33.992,,,
35.687,33.972,,,
35.546,33.953,,,
35.41,33.935,,,
35.278,33.916,,,
35.153,33.896,,,
35.034,33.875,,,
34.923,33.852,,,
34.821,33.829,,,
34.729,33.806,,,
34.646,33.785,,,
34.574,33.768,,,
34.512,33.755,,,
34.46,33.749,,,
34.418,33.752,,,
34.387,33.766,,,
34.364,33.794,,,
34.351,33.838,,,
34.346,33.899,,,
34.348,33.979,,,
34.356,34.08,,,
34.368,34.201,,,
34.383,34.341,,,
34.401,34.5,,,
34.421,34.675,,,
34.441,34.864,,,
34.462,35.065,,,
34.483,35.275,,,
34.502,35.492,,,
34.519,35.714,,,
34.535,35.937,,,
34.548,36.159,,,
34.559,36.377,,,
34.568,36.59,,,
34.572,36.794,,,
34.573,36.988,,,
34.57,37.171,,,
34.562,37.341,,,
34.549,37.497,,,
34.532,37.64,,,
34.511,37.768,,,
34.485,37.88,,,
34.455,37.977,,,
34.42,38.059,,,
34.382,38.125,,,
34.342,38.176,,,
34.299,38.212,,,
34.254,38.235,,,
34.208,38.245,,,
34.161,38.244,,,
34.113,38.231,,,
34.063,38.208,,,
34.013,38.175,,,
33.961,38.135,,,
33.908,38.087,,,
33.853,38.033,,,
33.796,37.973,,,
33.736,37.908,,,
33.674,37.838,,,
33.61,37.765,,,
33.544,37.689,,,
33.477,37.611,,,
33.41,37.533,,,
33.341,37.453,,,
33.273,37.374,,,
33.205,37.294,,,
33.137,37.215,,,
33.07,37.135,,,
33.003,37.057,,,
32.938,36.98,,,
32.874,36.903,,,
32.81,36.828,,,
32.748,36.754,,,
32.687,36.681,,,
32.627,36.608,,,
32.567,36.537,,,
32.509,36.468,,,
32.452,36.399,,,
32.397,36.333,,,
32.344,36.268,,,
32.293,36.205,,,
32.245,36.144,,,
32.198,36.085,,,
32.153,36.029,,,
32.108,35.975,,,
32.065,35.923,,,
32.022,35.874,,,
31.979,35.829,,,
31.936,35.787,,,
31.892,35.749,,,
31.848,35.716,,,
31.804,35.686,,,
31.758,35.661,,,
31.712,35.64,,,
31.665,35.625,,,
31.617,35.615,,,
31.569,35.61,,,
31.519,35.611,,,
31.469,35.616,,,
31.418,35.624,,,
31.367,35.635,,,
31.316,35.647,,,
31.266,35.659,,,
31.219,35.672,,,
31.176,35.684,,,
31.14,35.694,,,
31.115,35.704,,,
31.105,35.713,,,
31.113,35.721,,,
31.145,35.728,,,
31.204,35.733,,,
31.294,35.736,,,
31.418,35.736,,,
31.578,35.734,,,
31.775,35.73,,,
32.009,35.724,,,
32.278,35.716,,,
32.579,35.705,,,
32.909,35.693,,,
33.262,35.678,,,
33.636,35.66,,,
34.023,35.639,,,
34.419,35.614,,,
34.819,35.585,,,
35.216,35.554,,,
35.605,35.519,,,
35.982,35.481,,,
36.343,35.441,,,
36.684,35.399,,,
37.002,35.354,,,
37.296,35.308,,,
37.563,35.261,,,
37.803,35.213,,,
38.015,35.164,,,
38.2,35.114,,,
38.356,35.065,,,
38.486,35.016,,,
38.588,34.967,,,
38.665,34.919,,,
38.717,34.872,,,
38.746,34.825,,,
38.753,34.779,,,
38.739,34.735,,,
38.706,34.692,,,
38.655,34.652,,,
38.588,34.612,,,
38.506,34.573,,,
38.412,34.534,,,
38.305,34.496,,,
38.19,34.457,,,
38.065,34.418,,,
37.935,34.379,,,
37.799,34.338,,,
37.66,34.297,,,
37.519,34.256,,,
37.376,34.214,,,
37.233,34.173,,,
37.088,34.132,,,
36.944,34.092,,,
36.799,34.054,,,
36.655,34.016,,,
36.511,33.979,,,
36.368,33.942,,,
36.226,33.906,,,
36.086,33.871,,,
35.947,33.837,,,
35.81,33.804,,,
35.674,33.771,,,
35.54,33.739,,,
35.409,33.707,,,
35.28,33.676,,,
35.154,33.646,,,
35.032,33.617,,,
34.914,33.588,,,
34.801,33.559,,,
34.693,33.53,,,
34.591,33.502,,,
34.495,33.474,,,
34.407,33.446,,,
34.327,33.419,,,
34.255,33.392,,,
34.192,33.367,,,
34.136,33.343,,,
34.089,33.322,,,
34.051,33.303,,,
34.02,33.29,,,
33.997,33.285,,,
33.981,33.29,,,
33.972,33.307,,,
33.968,33.337,,,
33.97,33.383,,,
33.976,33.446,,,
33.986,33.527,,,
33.999,33.628,,,
34.015,33.751,,,
34.032,33.894,,,
34.051,34.059,,,
34.072,34.244,,,
34.092,34.447,,,
34.114,34.667,,,
34.135,34.9,,,
34.155,35.145,,,
34.174,35.399,,,
34.191,35.659,,,
34.204,35.922,,,
34.214,36.185,,,
34.219,36.446,,,
34.219,36.702,,,
34.214,36.951,,,
34.203,37.19,,,
34.187,37.419,,,
34.165,37.634,,,
34.139,37.835,,,
34.109,38.02,,,
34.076,38.188,,,
34.04,38.339,,,
34,38.471,,,
33.958,38.585,,,
33.913,38.681,,,
33.865,38.758,,,
33.815,38.818,,,
33.761,38.861,,,
33.705,38.887,,,
33.646,38.898,,,
33.586,38.896,,,
33.525,38.881,,,
33.463,38.855,,,
33.402,38.82,,,
33.341,38.775,,,
33.28,38.723,,,
33.22,38.664,,,
33.159,38.601,,,
33.099,38.533,,,
33.04,38.463,,,
32.98,38.39,,,
32.922,38.315,,,
32.866,38.239,,,
32.81,38.163,,,
32.756,38.087,,,
32.704,38.012,,,
32.653,37.938,,,
32.602,37.866,,,
32.553,37.797,,,
32.504,37.729,,,
32.456,37.663,,,
32.408,37.599,,,
32.359,37.536,,,
32.31,37.475,,,
32.261,37.415,,,
32.212,37.356,,,
32.164,37.297,,,
32.116,37.238,,,
32.068,37.178,,,
32.02,37.117,,,
31.973,37.057,,,
31.927,36.996,,,
31.881,36.936,,,
31.836,36.876,,,
31.79,36.819,,,
31.745,36.763,,,
31.701,36.71,,,
31.656,36.66,,,
31.612,36.613,,,
31.568,36.569,,,
31.524,36.527,,,
31.479,36.489,,,
31.435,36.454,,,
31.391,36.423,,,
31.349,36.396,,,
31.307,36.373,,,
31.269,36.355,,,
31.234,36.341,,,
31.206,36.332,,,
31.188,36.327,,,
31.181,36.326,,,
31.19,36.327,,,
31.219,36.332,,,
31.271,36.337,,,
31.349,36.344,,,
31.458,36.35,,,
31.598,36.355,,,
31.773,36.359,,,
31.981,36.362,,,
32.222,36.362,,,
32.494,36.361,,,
32.794,36.358,,,
33.116,36.354,,,
33.458,36.349,,,
33.813,36.342,,,
34.177,36.334,,,
34.543,36.324,,,
34.908,36.314,,,
35.265,36.302,,,
35.611,36.288,,,
35.941,36.272,,,
36.253,36.253,,,
36.542,36.231,,,
36.807,36.206,,,
37.046,36.178,,,
37.258,36.147,,,
37.442,36.112,,,
37.597,36.075,,,
37.724,36.035,,,
37.823,35.994,,,
37.896,35.952,,,
37.944,35.909,,,
37.969,35.864,,,
37.972,35.818,,,
37.956,35.772,,,
37.923,35.725,,,
37.873,35.679,,,
37.81,35.632,,,
37.734,35.585,,,
37.647,35.537,,,
37.55,35.489,,,
37.445,35.441,,,
37.333,35.392,,,
37.215,35.342,,,
37.093,35.293,,,
36.966,35.243,,,
36.836,35.193,,,
36.703,35.142,,,
36.569,35.092,,,
36.434,35.042,,,
36.299,34.991,,,
36.164,34.941,,,
36.029,34.891,,,
35.896,34.84,,,
35.765,34.79,,,
35.636,34.739,,,
35.509,34.689,,,
35.384,34.64,,,
35.261,34.591,,,
35.14,34.543,,,
35.021,34.497,,,
34.904,34.451,,,
34.79,34.408,,,
34.678,34.366,,,
34.57,34.326,,,
34.466,34.288,,,
34.365,34.251,,,
34.269,34.217,,,
34.179,34.185,,,
34.094,34.153,,,
34.016,34.123,,,
33.944,34.093,,,
33.88,34.063,,,
33.823,34.033,,,
33.774,34.004,,,
33.733,33.975,,,
33.7,33.946,,,
33.675,33.917,,,
33.659,33.889,,,
33.651,33.862,,,
33.65,33.835,,,
33.657,33.809,,,
33.671,33.782,,,
33.691,33.756,,,
33.716,33.73,,,
33.745,33.705,,,
33.777,33.682,,,
33.812,33.66,,,
33.847,33.641,,,
33.882,33.624,,,
33.916,33.611,,,
33.949,33.604,,,
33.979,33.605,,,
34.007,33.615,,,
34.03,33.638,,,
34.049,33.677,,,
34.063,33.734,,,
34.071,33.812,,,
34.075,33.913,,,
34.074,34.038,,,
34.067,34.187,,,
34.056,34.361,,,
34.041,34.559,,,
34.023,34.778,,,
34,35.016,,,
33.975,35.272,,,
33.947,35.541,,,
33.917,35.82,,,
33.884,36.106,,,
33.848,36.394,,,
33.81,36.683,,,
33.771,36.967,,,
33.729,37.245,,,
33.686,37.514,,,
33.641,37.771,,,
33.596,38.014,,,
33.549,38.242,,,
33.503,38.453,,,
33.455,38.645,,,
33.408,38.819,,,
33.36,38.973,,,
33.312,39.108,,,
33.263,39.224,,,
33.214,39.321,,,
33.164,39.401,,,
33.114,39.464,,,
33.064,39.511,,,
33.013,39.545,,,
32.963,39.566,,,
32.914,39.575,,,
32.866,39.573,,,
32.817,39.56,,,
32.77,39.537,,,
32.723,39.504,,,
32.677,39.463,,,
32.632,39.415,,,
32.588,39.359,,,
32.545,39.298,,,
32.501,39.232,,,
32.458,39.163,,,
32.415,39.09,,,
32.372,39.015,,,
32.328,38.939,,,
32.285,38.862,,,
32.242,38.785,,,
32.199,38.709,,,
32.156,38.634,,,
32.113,38.561,,,
32.07,38.49,,,
32.027,38.422,,,
31.983,38.356,,,
31.94,38.293,,,
31.897,38.232,,,
31.855,38.173,,,
31.813,38.115,,,
31.771,38.059,,,
31.729,38.003,,,
31.688,37.948,,,
31.647,37.894,,,
31.607,37.839,,,
31.569,37.784,,,
31.534,37.729,,,
31.505,37.675,,,
31.485,37.621,,,
31.476,37.568,,,
31.483,37.516,,,
31.51,37.467,,,
31.56,37.418,,,
31.636,37.372,,,
31.742,37.327,,,
31.88,37.285,,,
32.049,37.245,,,
32.25,37.208,,,
32.482,37.174,,,
32.742,37.142,,,
33.025,37.113,,,
33.33,37.087,,,
33.65,37.064,,,
33.981,37.045,,,
34.318,37.03,,,
34.656,37.019,,,
34.989,37.012,,,
35.314,37.009,,,
35.627,37.009,,,
35.922,37.01,,,
36.199,37.013,,,
36.453,37.016,,,
36.682,37.018,,,
36.886,37.019,,,
37.064,37.017,,,
37.216,37.012,,,
37.341,37.004,,,
37.44,36.993,,,
37.513,36.978,,,
37.562,36.96,,,
37.587,36.939,,,
37.591,36.915,,,
37.575,36.887,,,
37.542,36.856,,,
37.493,36.821,,,
37.431,36.783,,,
37.358,36.743,,,
37.275,36.7,,,
37.183,36.655,,,
37.085,36.609,,,
36.98,36.561,,,
36.868,36.513,,,
36.751,36.464,,,
36.628,36.414,,,
36.502,36.365,,,
36.372,36.315,,,
36.239,36.265,,,
36.105,36.214,,,
35.97,36.164,,,
35.835,36.112,,,
35.701,36.061,,,
35.568,36.008,,,
35.435,35.955,,,
35.305,35.9,,,
35.176,35.844,,,
35.05,35.787,,,
34.926,35.728,,,
34.804,35.668,,,
34.685,35.607,,,
34.568,35.546,,,
34.452,35.484,,,
34.338,35.423,,,
34.227,35.363,,,
34.12,35.305,,,
34.015,35.248,,,
33.915,35.193,,,
33.82,35.139,,,
33.729,35.088,,,
33.645,35.039,,,
33.569,34.992,,,
33.5,34.946,,,
33.439,34.903,,,
33.388,34.862,,,
33.347,34.822,,,
33.315,34.784,,,
33.293,34.748,,,
33.282,34.712,,,
33.279,34.678,,,
33.286,34.644,,,
33.302,34.611,,,
33.324,34.578,,,
33.353,34.545,,,
33.387,34.511,,,
33.425,34.478,,,
33.465,34.444,,,
33.506,34.411,,,
33.548,34.378,,,
33.589,34.345,,,
33.63,34.313,,,
33.668,34.282,,,
33.704,34.25,,,
33.737,34.218,,,
33.766,34.185,,,
33.79,34.152,,,
33.81,34.118,,,
33.824,34.084,,,
33.833,34.049,,,
33.837,34.013,,,
33.836,33.978,,,
33.83,33.944,,,
33.819,33.914,,,
33.804,33.888,,,
33.785,33.868,,,
33.763,33.856,,,
33.738,33.854,,,
33.711,33.864,,,
33.681,33.889,,,
33.651,33.931,,,
33.619,33.992,,,
33.587,34.075,,,
33.554,34.18,,,
33.52,34.309,,,
33.486,34.462,,,
33.452,34.64,,,
33.417,34.841,,,
33.381,35.064,,,
33.344,35.308,,,
33.306,35.568,,,
33.267,35.844,,,
33.226,36.13,,,
33.184,36.424,,,
33.141,36.721,,,
33.097,37.019,,,
33.054,37.314,,,
33.01,37.604,,,
32.966,37.884,,,
32.923,38.154,,,
32.88,38.409,,,
32.838,38.647,,,
32.797,38.867,,,
32.756,39.068,,,
32.716,39.248,,,
32.677,39.407,,,
32.638,39.545,,,
32.599,39.663,,,
32.56,39.76,,,
32.522,39.838,,,
32.484,39.897,,,
32.447,39.939,,,
32.41,39.965,,,
32.374,39.977,,,
32.339,39.975,,,
32.304,39.961,,,
32.269,39.935,,,
32.234,39.899,,,
32.2,39.854,,,
32.165,39.8,,,
32.13,39.738,,,
32.095,39.671,,,
32.06,39.599,,,
32.026,39.524,,,
31.993,39.448,,,
31.959,39.371,,,
31.926,39.295,,,
31.892,39.218,,,
31.859,39.142,,,
31.826,39.066,,,
31.796,38.99,,,
31.77,38.914,,,
31.75,38.838,,,
31.739,38.76,,,
31.738,38.682,,,
31.752,38.605,,,
31.784,38.527,,,
31.837,38.45,,,
31.915,38.373,,,
32.02,38.295,,,
32.154,38.216,,,
32.319,38.136,,,
32.513,38.055,,,
32.735,37.972,,,
32.985,37.888,,,
33.257,37.802,,,
33.55,37.715,,,
33.857,37.626,,,
34.176,37.537,,,
34.499,37.447,,,
34.822,37.358,,,
35.14,37.271,,,
35.448,37.186,,,
35.742,37.103,,,
36.018,37.024,,,
36.273,36.948,,,
36.506,36.877,,,
36.715,36.809,,,
36.899,36.746,,,
37.057,36.687,,,
37.191,36.633,,,
37.3,36.581,,,
37.387,36.533,,,
37.45,36.487,,,
37.494,36.444,,,
37.519,36.402,,,
37.526,36.361,,,
37.518,36.321,,,
37.495,36.282,,,
37.459,36.245,,,
37.411,36.208,,,
37.353,36.173,,,
37.286,36.138,,,
37.21,36.103,,,
37.127,36.068,,,
37.036,36.032,,,
36.939,35.997,,,
36.837,35.961,,,
36.729,35.925,,,
36.617,35.889,,,
36.502,35.852,,,
36.384,35.814,,,
36.263,35.775,,,
36.141,35.735,,,
36.018,35.693,,,
35.894,35.651,,,
35.77,35.608,,,
35.646,35.564,,,
35.522,35.52,,,
35.397,35.474,,,
35.273,35.427,,,
35.149,35.38,,,
35.026,35.333,,,
34.903,35.285,,,
34.782,35.237,,,
34.663,35.188,,,
34.547,35.137,,,
34.434,35.085,,,
34.324,35.031,,,
34.22,34.976,,,
34.121,34.92,,,
34.029,34.863,,,
33.944,34.807,,,
33.868,34.752,,,
33.8,34.698,,,
33.742,34.645,,,
33.694,34.596,,,
33.656,34.549,,,
33.628,34.506,,,
33.61,34.467,,,
33.602,34.43,,,
33.605,34.395,,,
33.617,34.362,,,
33.638,34.329,,,
33.666,34.297,,,
33.701,34.266,,,
33.742,34.234,,,
33.787,34.202,,,
33.835,34.171,,,
33.886,34.14,,,
33.937,34.109,,,
33.988,34.078,,,
34.039,34.048,,,
34.088,34.02,,,
34.135,33.993,,,
34.18,33.967,,,
34.223,33.942,,,
34.263,33.919,,,
34.299,33.897,,,
34.331,33.877,,,
34.359,33.858,,,
34.382,33.84,,,
34.4,33.823,,,
34.413,33.807,,,
34.419,33.791,,,
34.42,33.774,,,
34.415,33.756,,,
34.405,33.738,,,
34.389,33.717,,,
34.367,33.694,,,
34.341,33.67,,,
34.311,33.644,,,
34.277,33.617,,,
34.239,33.59,,,
34.198,33.562,,,
34.155,33.535,,,
34.111,33.508,,,
34.065,33.482,,,
34.02,33.458,,,
33.974,33.434,,,
33.929,33.413,,,
33.885,33.396,,,
33.842,33.384,,,
33.8,33.379,,,
33.76,33.385,,,
33.72,33.404,,,
33.681,33.438,,,
33.643,33.49,,,
33.605,33.562,,,
33.567,33.654,,,
33.528,33.769,,,
33.49,33.907,,,
33.451,34.067,,,
33.413,34.249,,,
33.374,34.451,,,
33.336,34.672,,,
33.298,34.91,,,
33.261,35.161,,,
33.226,35.424,,,
33.192,35.695,,,
33.159,35.971,,,
33.128,36.249,,,
33.097,36.525,,,
33.068,36.796,,,
33.038,37.059,,,
33.009,37.311,,,
32.979,37.549,,,
32.949,37.771,,,
32.918,37.975,,,
32.886,38.16,,,
32.853,38.325,,,
32.818,38.469,,,
32.781,38.593,,,
32.743,38.696,,,
32.704,38.778,,,
32.665,38.841,,,
32.626,38.886,,,
32.59,38.914,,,
32.557,38.927,,,
32.53,38.925,,,
32.509,38.91,,,
32.498,38.884,,,
32.499,38.846,,,
32.516,38.799,,,
32.552,38.742,,,
32.61,38.678,,,
32.693,38.607,,,
32.804,38.531,,,
32.942,38.45,,,
33.11,38.366,,,
33.306,38.278,,,
33.529,38.189,,,
33.777,38.099,,,
34.047,38.008,,,
34.333,37.918,,,
34.632,37.829,,,
34.939,37.74,,,
35.249,37.653,,,
35.558,37.567,,,
35.861,37.481,,,
36.153,37.396,,,
36.433,37.311,,,
36.696,37.228,,,
36.942,37.145,,,
37.166,37.062,,,
37.369,36.981,,,
37.549,36.901,,,
37.705,36.823,,,
37.838,36.746,,,
37.949,36.671,,,
38.037,36.596,,,
38.104,36.522,,,
38.151,36.449,,,
38.178,36.376,,,
38.188,36.304,,,
38.183,36.233,,,
38.163,36.165,,,
38.13,36.098,,,
38.087,36.035,,,
38.033,35.977,,,
37.971,35.923,,,
37.899,35.874,,,
37.82,35.83,,,
37.733,35.792,,,
37.641,35.76,,,
37.544,35.734,,,
37.443,35.714,,,
37.34,35.699,,,
37.234,35.689,,,
37.127,35.682,,,
37.02,35.679,,,
36.912,35.679,,,
36.803,35.68,,,
36.695,35.682,,,
36.586,35.684,,,
36.477,35.686,,,
36.369,35.688,,,
36.262,35.689,,,
36.154,35.688,,,
36.046,35.686,,,
35.939,35.683,,,
35.831,35.678,,,
35.724,35.671,,,
35.618,35.662,,,
35.514,35.651,,,
35.412,35.637,,,
35.313,35.62,,,
35.219,35.601,,,
35.131,35.58,,,
35.05,35.555,,,
34.977,35.528,,,
34.912,35.499,,,
34.857,35.468,,,
34.811,35.436,,,
34.775,35.401,,,
34.749,35.365,,,
34.732,35.328,,,
34.723,35.289,,,
34.723,35.249,,,
34.729,35.208,,,
34.742,35.166,,,
34.759,35.123,,,
34.781,35.079,,,
34.807,35.035,,,
34.836,34.991,,,
34.866,34.946,,,
34.898,34.899,,,
34.929,34.852,,,
34.961,34.803,,,
34.991,34.752,,,
35.02,34.7,,,
35.047,34.646,,,
35.073,34.591,,,
35.096,34.535,,,
35.118,34.477,,,
35.136,34.419,,,
35.152,34.361,,,
35.166,34.303,,,
35.177,34.246,,,
35.186,34.19,,,
35.193,34.134,,,
35.197,34.079,,,
35.199,34.023,,,
35.198,33.969,,,
35.193,33.915,,,
35.185,33.861,,,
35.174,33.807,,,
35.16,33.754,,,
35.141,33.701,,,
35.119,33.649,,,
35.094,33.597,,,
35.066,33.546,,,
35.035,33.496,,,
35.002,33.449,,,
34.967,33.402,,,
34.931,33.357,,,
34.894,33.314,,,
34.855,33.271,,,
34.815,33.229,,,
34.773,33.188,,,
34.73,33.147,,,
34.686,33.106,,,
34.641,33.064,,,
34.596,33.023,,,
34.551,32.982,,,
34.506,32.941,,,
34.461,32.9,,,
34.417,32.862,,,
34.374,32.826,,,
34.332,32.794,,,
34.29,32.767,,,
34.25,32.749,,,
34.211,32.741,,,
34.173,32.747,,,
34.136,32.77,,,
34.099,32.812,,,
34.064,32.876,,,
34.029,32.962,,,
33.995,33.074,,,
33.961,33.21,,,
33.928,33.372,,,
33.895,33.557,,,
33.863,33.766,,,
33.832,33.993,,,
33.801,34.237,,,
33.77,34.494,,,
33.739,34.759,,,
33.709,35.027,,,
33.68,35.296,,,
33.652,35.56,,,
33.625,35.818,,,
33.602,36.065,,,
33.585,36.3,,,
33.577,36.521,,,
33.581,36.726,,,
33.601,36.914,,,
33.641,37.085,,,
33.704,37.237,,,
33.792,37.371,,,
33.909,37.487,,,
34.054,37.585,,,
34.23,37.665,,,
34.435,37.727,,,
34.667,37.774,,,
34.924,37.804,,,
35.203,37.82,,,
35.499,37.821,,,
35.809,37.809,,,
36.127,37.785,,,
36.448,37.75,,,
36.768,37.704,,,
37.083,37.65,,,
37.388,37.589,,,
37.679,37.52,,,
37.953,37.446,,,
38.207,37.368,,,
38.439,37.287,,,
38.647,37.203,,,
38.832,37.119,,,
38.992,37.034,,,
39.128,36.95,,,
39.24,36.867,,,
39.329,36.784,,,
39.396,36.702,,,
39.441,36.62,,,
39.467,36.538,,,
39.475,36.455,,,
39.466,36.371,,,
39.442,36.286,,,
39.404,36.2,,,
39.354,36.112,,,
39.294,36.023,,,
39.226,35.932,,,
39.151,35.841,,,
39.071,35.748,,,
38.985,35.656,,,
38.895,35.565,,,
38.802,35.477,,,
38.705,35.392,,,
38.605,35.312,,,
38.502,35.237,,,
38.397,35.167,,,
38.29,35.104,,,
38.181,35.047,,,
38.071,34.997,,,
37.96,34.955,,,
37.849,34.919,,,
37.738,34.89,,,
37.627,34.869,,,
37.516,34.855,,,
37.406,34.848,,,
37.296,34.846,,,
37.188,34.85,,,
37.08,34.859,,,
36.974,34.874,,,
36.869,34.892,,,
36.767,34.914,,,
36.668,34.939,,,
36.573,34.965,,,
36.481,34.991,,,
36.394,35.018,,,
36.313,35.044,,,
36.237,35.07,,,
36.168,35.095,,,
36.105,35.119,,,
36.049,35.142,,,
35.999,35.164,,,
35.956,35.186,,,
35.92,35.206,,,
35.891,35.224,,,
35.869,35.239,,,
35.854,35.252,,,
35.845,35.261,,,
35.842,35.265,,,
35.845,35.265,,,
35.854,35.261,,,
35.868,35.253,,,
35.886,35.241,,,
35.908,35.226,,,
35.933,35.207,,,
35.96,35.186,,,
35.989,35.162,,,
36.018,35.135,,,
36.046,35.106,,,
36.072,35.076,,,
36.095,35.045,,,
36.115,35.013,,,
36.131,34.981,,,
36.143,34.948,,,
36.151,34.915,,,
36.154,34.882,,,
36.152,34.848,,,
36.146,34.813,,,
36.135,34.776,,,
36.121,34.738,,,
36.102,34.698,,,
36.078,34.656,,,
36.051,34.611,,,
36.02,34.565,,,
35.985,34.517,,,
35.947,34.468,,,
35.906,34.419,,,
35.862,34.371,,,
35.814,34.323,,,
35.765,34.277,,,
35.713,34.233,,,
35.659,34.19,,,
35.604,34.149,,,
35.547,34.109,,,
35.49,34.07,,,
35.433,34.032,,,
35.375,33.995,,,
35.319,33.96,,,
35.263,33.927,,,
35.208,33.895,,,
35.154,33.864,,,
35.102,33.833,,,
35.052,33.802,,,
35.003,33.77,,,
34.956,33.738,,,
34.91,33.706,,,
34.865,33.675,,,
34.821,33.644,,,
34.778,33.613,,,
34.735,33.581,,,
34.693,33.549,,,
34.65,33.515,,,
34.608,33.48,,,
34.565,33.444,,,
34.523,33.408,,,
34.48,33.372,,,
34.436,33.337,,,
34.393,33.305,,,
34.348,33.278,,,
34.304,33.258,,,
34.26,33.248,,,
34.215,33.25,,,
34.171,33.268,,,
34.126,33.304,,,
34.082,33.361,,,
34.038,33.441,,,
33.996,33.545,,,
33.955,33.673,,,
33.918,33.825,,,
33.886,34,,,
33.863,34.198,,,
33.85,34.414,,,
33.852,34.648,,,
33.873,34.897,,,
33.918,35.158,,,
33.989,35.426,,,
34.09,35.7,,,
34.224,35.974,,,
34.39,36.247,,,
34.591,36.516,,,
34.824,36.776,,,
35.088,37.028,,,
35.379,37.267,,,
35.695,37.491,,,
36.031,37.699,,,
36.383,37.89,,,
36.745,38.062,,,
37.112,38.215,,,
37.481,38.347,,,
37.844,38.46,,,
38.2,38.553,,,
38.543,38.627,,,
38.869,38.683,,,
39.176,38.724,,,
39.462,38.749,,,
39.724,38.761,,,
39.962,38.76,,,
40.175,38.748,,,
40.363,38.725,,,
40.525,38.693,,,
40.662,38.653,,,
40.775,38.605,,,
40.864,38.552,,,
40.93,38.492,,,
40.974,38.429,,,
40.999,38.362,,,
41.005,38.291,,,
40.995,38.218,,,
40.97,38.143,,,
40.931,38.066,,,
40.881,37.988,,,
40.821,37.909,,,
40.752,37.83,,,
40.678,37.751,,,
40.598,37.674,,,
40.514,37.599,,,
40.426,37.525,,,
40.335,37.453,,,
40.242,37.381,,,
40.146,37.311,,,
40.049,37.24,,,
39.951,37.169,,,
39.852,37.097,,,
39.753,37.024,,,
39.653,36.949,,,
39.554,36.874,,,
39.456,36.797,,,
39.358,36.719,,,
39.26,36.639,,,
39.163,36.559,,,
39.066,36.478,,,
38.97,36.397,,,
38.874,36.318,,,
38.778,36.241,,,
38.682,36.168,,,
38.587,36.099,,,
38.493,36.035,,,
38.401,35.977,,,
38.311,35.924,,,
38.224,35.877,,,
38.141,35.835,,,
38.062,35.8,,,
37.988,35.771,,,
37.92,35.746,,,
37.857,35.726,,,
37.8,35.711,,,
37.748,35.698,,,
37.703,35.688,,,
37.664,35.68,,,
37.63,35.673,,,
37.602,35.667,,,
37.58,35.662,,,
37.562,35.658,,,
37.548,35.653,,,
37.539,35.648,,,
37.533,35.642,,,
37.531,35.634,,,
37.53,35.625,,,
37.531,35.614,,,
37.533,35.601,,,
37.534,35.585,,,
37.535,35.567,,,
37.536,35.546,,,
37.535,35.522,,,
37.534,35.495,,,
37.533,35.464,,,
37.531,35.431,,,
37.53,35.395,,,
37.528,35.357,,,
37.525,35.317,,,
37.522,35.276,,,
37.518,35.234,,,
37.512,35.191,,,
37.503,35.148,,,
37.492,35.106,,,
37.478,35.063,,,
37.459,35.02,,,
37.436,34.976,,,
37.408,34.93,,,
37.375,34.883,,,
37.337,34.835,,,
37.295,34.785,,,
37.249,34.734,,,
37.2,34.682,,,
37.148,34.628,,,
37.094,34.573,,,
37.037,34.517,,,
36.979,34.459,,,
36.919,34.401,,,
36.858,34.342,,,
36.796,34.283,,,
36.733,34.225,,,
36.67,34.168,,,
36.607,34.113,,,
36.543,34.059,,,
36.48,34.007,,,
36.415,33.957,,,
36.351,33.907,,,
36.286,33.859,,,
36.221,33.811,,,
36.157,33.763,,,
36.093,33.716,,,
36.031,33.669,,,
35.969,33.623,,,
35.908,33.576,,,
35.848,33.529,,,
35.789,33.482,,,
35.731,33.435,,,
35.674,33.388,,,
35.617,33.342,,,
35.562,33.295,,,
35.507,33.249,,,
35.452,33.204,,,
35.397,33.159,,,
35.342,33.114,,,
35.286,33.07,,,
35.231,33.026,,,
35.177,32.983,,,
35.123,32.94,,,
35.07,32.898,,,
35.02,32.859,,,
34.973,32.824,,,
34.931,32.794,,,
34.896,32.773,,,
34.871,32.761,,,
34.858,32.763,,,
34.863,32.78,,,
34.887,32.815,,,
34.936,32.869,,,
35.012,32.943,,,
35.118,33.039,,,
35.255,33.158,,,
35.425,33.3,,,
35.626,33.462,,,
35.858,33.643,,,
36.119,33.841,,,
36.404,34.054,,,
36.711,34.276,,,
37.035,34.507,,,
37.372,34.742,,,
37.717,34.978,,,
38.065,35.212,,,
38.414,35.442,,,
38.757,35.665,,,
39.09,35.877,,,
39.411,36.078,,,
39.714,36.265,,,
39.997,36.436,,,
40.258,36.591,,,
40.495,36.727,,,
40.706,36.846,,,
40.891,36.946,,,
41.048,37.028,,,
41.179,37.092,,,
41.284,37.14,,,
41.363,37.17,,,
41.418,37.186,,,
41.45,37.188,,,
41.462,37.177,,,
41.455,37.154,,,
41.431,37.122,,,
41.392,37.081,,,
41.34,37.034,,,
41.276,36.98,,,
41.202,36.922,,,
41.119,36.86,,,
41.029,36.797,,,
40.933,36.733,,,
40.832,36.669,,,
40.726,36.605,,,
40.618,36.541,,,
40.508,36.478,,,
40.398,36.414,,,
40.287,36.351,,,
40.178,36.287,,,
40.07,36.223,,,
39.965,36.16,,,
39.862,36.096,,,
39.762,36.033,,,
39.665,35.97,,,
39.571,35.907,,,
39.479,35.844,,,
39.39,35.781,,,
39.302,35.717,,,
39.216,35.653,,,
39.131,35.588,,,
39.047,35.522,,,
38.964,35.457,,,
38.884,35.391,,,
38.805,35.326,,,
38.728,35.261,,,
38.654,35.196,,,
38.584,35.13,,,
38.516,35.065,,,
38.452,35.001,,,
38.391,34.939,,,
38.333,34.878,,,
38.28,34.821,,,
38.23,34.766,,,
38.186,34.715,,,
38.148,34.668,,,
38.115,34.624,,,
38.087,34.585,,,
38.065,34.551,,,
38.049,34.52,,,
38.039,34.495,,,
38.033,34.474,,,
38.031,34.458,,,
38.033,34.446,,,
38.037,34.439,,,
38.043,34.436,,,
38.051,34.436,,,
38.058,34.44,,,
38.064,34.447,,,
38.069,34.456,,,
38.07,34.467,,,
38.068,34.478,,,
38.061,34.49,,,
38.05,34.502,,,
38.035,34.513,,,
38.015,34.522,,,
37.99,34.53,,,
37.962,34.535,,,
37.928,34.537,,,
37.89,34.535,,,
37.848,34.529,,,
37.801,34.519,,,
37.751,34.505,,,
37.696,34.486,,,
37.637,34.463,,,
37.576,34.436,,,
37.511,34.406,,,
37.444,34.374,,,
37.375,34.338,,,
37.304,34.3,,,
37.232,34.259,,,
37.159,34.216,,,
37.084,34.171,,,
37.007,34.123,,,
36.929,34.074,,,
36.85,34.024,,,
36.769,33.971,,,
36.687,33.918,,,
36.604,33.863,,,
36.521,33.808,,,
36.436,33.752,,,
36.351,33.697,,,
36.266,33.641,,,
36.18,33.586,,,
36.094,33.533,,,
36.008,33.48,,,
35.922,33.428,,,
35.837,33.378,,,
35.753,33.328,,,
35.67,33.28,,,
35.588,33.234,,,
35.507,33.188,,,
35.429,33.143,,,
35.352,33.099,,,
35.278,33.056,,,
35.205,33.014,,,
35.134,32.972,,,
35.065,32.932,,,
34.998,32.891,,,
34.934,32.85,,,
34.872,32.807,,,
34.813,32.763,,,
34.755,32.717,,,
34.698,32.671,,,
34.643,32.623,,,
34.59,32.574,,,
34.537,32.525,,,
34.484,32.476,,,
34.432,32.426,,,
34.379,32.377,,,
34.327,32.329,,,
34.275,32.281,,,
34.226,32.234,,,
34.18,32.189,,,
34.139,32.147,,,
34.105,32.107,,,
34.082,32.071,,,
34.072,32.04,,,
34.078,32.016,,,
34.105,32.001,,,
34.156,31.996,,,
34.232,32.005,,,
34.337,32.028,,,
34.471,32.068,,,
34.635,32.127,,,
34.828,32.205,,,
35.049,32.304,,,
35.295,32.422,,,
35.564,32.559,,,
35.852,32.715,,,
36.155,32.887,,,
36.468,33.074,,,
36.787,33.274,,,
37.108,33.483,,,
37.425,33.699,,,
37.734,33.918,,,
38.031,34.137,,,
38.313,34.353,,,
38.576,34.563,,,
38.818,34.764,,,
39.037,34.954,,,
39.232,35.132,,,
39.403,35.294,,,
39.548,35.441,,,
39.668,35.57,,,
39.764,35.683,,,
39.837,35.778,,,
39.888,35.855,,,
39.919,35.915,,,
39.931,35.957,,,
39.925,35.984,,,
39.903,35.996,,,
39.867,35.995,,,
39.818,35.981,,,
39.758,35.956,,,
39.689,35.922,,,
39.612,35.88,,,
39.528,35.83,,,
39.438,35.774,,,
39.344,35.714,,,
39.246,35.649,,,
39.145,35.582,,,
39.041,35.512,,,
38.937,35.441,,,
38.832,35.368,,,
38.727,35.296,,,
38.622,35.224,,,
38.517,35.153,,,
38.412,35.083,,,
38.308,35.014,,,
38.203,34.947,,,
38.098,34.882,,,
37.993,34.818,,,
37.888,34.756,,,
37.783,34.696,,,
37.679,34.636,,,
37.573,34.576,,,
37.468,34.516,,,
37.362,34.457,,,
37.256,34.397,,,
37.149,34.337,,,
37.043,34.277,,,
36.937,34.218,,,
36.831,34.159,,,
36.727,34.102,,,
36.625,34.047,,,
36.525,33.994,,,
36.427,33.946,,,
36.333,33.901,,,
36.243,33.86,,,
36.158,33.824,,,
36.076,33.793,,,
36,33.765,,,
35.929,33.741,,,
35.864,33.719,,,
35.804,33.701,,,
35.751,33.685,,,
35.703,33.672,,,
35.661,33.662,,,
35.625,33.654,,,
35.594,33.65,,,
35.567,33.648,,,
35.544,33.65,,,
35.524,33.654,,,
35.507,33.66,,,
35.493,33.668,,,
35.481,33.678,,,
35.471,33.69,,,
35.462,33.703,,,
35.454,33.717,,,
35.447,33.733,,,
35.44,33.749,,,
35.434,33.765,,,
35.426,33.782,,,
35.416,33.798,,,
35.405,33.812,,,
35.39,33.824,,,
35.373,33.833,,,
35.353,33.839,,,
35.33,33.84,,,
35.303,33.838,,,
35.272,33.83,,,
35.239,33.819,,,
35.201,33.802,,,
35.162,33.781,,,
35.119,33.756,,,
35.075,33.727,,,
35.029,33.694,,,
34.981,33.658,,,
34.931,33.62,,,
34.879,33.581,,,
34.825,33.54,,,
34.77,33.498,,,
34.713,33.455,,,
34.656,33.411,,,
34.598,33.366,,,
34.54,33.321,,,
34.482,33.275,,,
34.424,33.228,,,
34.367,33.181,,,
34.311,33.134,,,
34.254,33.087,,,
34.198,33.039,,,
34.14,32.991,,,
34.081,32.942,,,
34.021,32.893,,,
33.96,32.844,,,
33.897,32.795,,,
33.834,32.746,,,
33.77,32.698,,,
33.706,32.651,,,
33.643,32.606,,,
33.58,32.562,,,
33.517,32.519,,,
33.455,32.478,,,
33.394,32.438,,,
33.333,32.399,,,
33.275,32.362,,,
33.218,32.325,,,
33.164,32.29,,,
33.111,32.257,,,
33.061,32.225,,,
33.011,32.195,,,
32.963,32.168,,,
32.915,32.141,,,
32.868,32.117,,,
32.822,32.094,,,
32.777,32.073,,,
32.732,32.054,,,
32.689,32.04,,,
32.645,32.03,,,
32.602,32.027,,,
32.56,32.031,,,
32.517,32.046,,,
32.475,32.073,,,
32.434,32.115,,,
32.394,32.173,,,
32.355,32.248,,,
32.32,32.342,,,
32.288,32.454,,,
32.263,32.586,,,
32.246,32.736,,,
32.239,32.902,,,
32.247,33.083,,,
32.271,33.276,,,
32.314,33.479,,,
32.379,33.688,,,
32.468,33.901,,,
32.583,34.115,,,
32.726,34.327,,,
32.896,34.535,,,
33.092,34.736,,,
33.313,34.929,,,
33.557,35.111,,,
33.82,35.282,,,
34.099,35.44,,,
34.39,35.582,,,
34.687,35.708,,,
34.986,35.817,,,
35.283,35.91,,,
35.572,35.985,,,
35.851,36.042,,,
36.115,36.083,,,
36.361,36.108,,,
36.587,36.119,,,
36.792,36.117,,,
36.973,36.102,,,
37.131,36.078,,,
37.264,36.044,,,
37.373,36.003,,,
37.458,35.956,,,
37.521,35.903,,,
37.562,35.847,,,
37.583,35.789,,,
37.585,35.728,,,
37.57,35.667,,,
37.539,35.604,,,
37.494,35.541,,,
37.437,35.479,,,
37.369,35.416,,,
37.292,35.354,,,
37.209,35.292,,,
37.119,35.232,,,
37.024,35.174,,,
36.926,35.118,,,
36.824,35.065,,,
36.72,35.014,,,
36.614,34.965,,,
36.507,34.919,,,
36.401,34.875,,,
36.295,34.833,,,
36.19,34.793,,,
36.086,34.754,,,
35.985,34.715,,,
35.886,34.677,,,
35.791,34.637,,,
35.7,34.597,,,
35.612,34.556,,,
35.529,34.513,,,
35.449,34.469,,,
35.373,34.424,,,
35.298,34.378,,,
35.225,34.332,,,
35.153,34.287,,,
35.081,34.242,,,
35.01,34.198,,,
34.939,34.156,,,
34.868,34.116,,,
34.797,34.08,,,
34.726,34.046,,,
34.656,34.016,,,
34.588,33.99,,,
34.521,33.968,,,
34.458,33.951,,,
34.397,33.937,,,
34.34,33.927,,,
34.288,33.921,,,
34.242,33.917,,,
34.203,33.916,,,
34.17,33.916,,,
34.143,33.917,,,
34.124,33.919,,,
34.111,33.921,,,
34.103,33.923,,,
34.1,33.926,,,
34.101,33.928,,,
34.105,33.93,,,
34.11,33.932,,,
34.116,33.934,,,
34.123,33.935,,,
34.13,33.936,,,
34.136,33.936,,,
34.141,33.934,,,
34.146,33.93,,,
34.15,33.923,,,
34.153,33.914,,,
34.155,33.903,,,
34.156,33.888,,,
34.156,33.872,,,
34.153,33.852,,,
34.149,33.829,,,
34.141,33.804,,,
34.132,33.776,,,
34.12,33.745,,,
34.105,33.712,,,
34.087,33.677,,,
34.066,33.64,,,
34.043,33.603,,,
34.018,33.565,,,
33.99,33.528,,,
33.959,33.491,,,
33.926,33.454,,,
33.89,33.419,,,
33.851,33.386,,,
33.811,33.353,,,
33.769,33.322,,,
33.726,33.292,,,
33.682,33.262,,,
33.637,33.234,,,
33.591,33.205,,,
33.546,33.176,,,
33.499,33.147,,,
33.453,33.118,,,
33.406,33.088,,,
33.359,33.057,,,
33.313,33.026,,,
33.266,32.994,,,
33.22,32.962,,,
33.175,32.929,,,
33.13,32.898,,,
33.087,32.867,,,
33.044,32.837,,,
33.001,32.807,,,
32.959,32.779,,,
32.917,32.752,,,
32.876,32.725,,,
32.834,32.699,,,
32.793,32.675,,,
32.753,32.651,,,
32.712,32.629,,,
32.672,32.607,,,
32.631,32.585,,,
32.592,32.565,,,
32.552,32.546,,,
32.514,32.527,,,
32.476,32.51,,,
32.439,32.494,,,
32.403,32.477,,,
32.366,32.461,,,
32.33,32.445,,,
32.293,32.429,,,
32.257,32.415,,,
32.222,32.404,,,
32.186,32.397,,,
32.151,32.397,,,
32.116,32.404,,,
32.081,32.422,,,
32.047,32.452,,,
32.014,32.497,,,
31.982,32.559,,,
31.953,32.639,,,
31.929,32.737,,,
31.911,32.855,,,
31.902,32.991,,,
31.905,33.144,,,
31.921,33.313,,,
31.954,33.495,,,
32.005,33.689,,,
32.076,33.891,,,
32.169,34.097,,,
32.284,34.305,,,
32.422,34.512,,,
32.583,34.715,,,
32.764,34.91,,,
32.965,35.095,,,
33.182,35.268,,,
33.413,35.427,,,
33.653,35.571,,,
33.899,35.7,,,
34.146,35.815,,,
34.392,35.915,,,
34.63,36,,,
34.857,36.072,,,
35.07,36.129,,,
35.266,36.172,,,
35.443,36.202,,,
35.599,36.219,,,
35.734,36.223,,,
35.847,36.217,,,
35.938,36.201,,,
36.007,36.177,,,
36.055,36.147,,,
36.082,36.111,,,
36.091,36.072,,,
36.083,36.03,,,
36.06,35.985,,,
36.023,35.939,,,
35.976,35.89,,,
35.921,35.84,,,
35.859,35.788,,,
35.792,35.734,,,
35.721,35.679,,,
35.647,35.623,,,
35.571,35.566,,,
35.494,35.508,,,
35.415,35.45,,,
35.336,35.392,,,
35.257,35.334,,,
35.178,35.277,,,
35.101,35.221,,,
35.023,35.169,,,
34.947,35.119,,,
34.87,35.072,,,
34.794,35.029,,,
34.719,34.989,,,
34.645,34.951,,,
34.572,34.915,,,
34.499,34.881,,,
34.428,34.848,,,
34.357,34.815,,,
34.287,34.783,,,
34.218,34.751,,,
34.149,34.719,,,
34.081,34.687,,,
34.013,34.655,,,
33.946,34.624,,,
33.881,34.592,,,
33.816,34.561,,,
33.753,34.53,,,
33.691,34.5,,,
33.632,34.47,,,
33.576,34.442,,,
33.522,34.415,,,
33.472,34.391,,,
33.427,34.368,,,
33.386,34.346,,,
33.35,34.326,,,
33.32,34.306,,,
33.297,34.288,,,
33.279,34.27,,,
33.269,34.253,,,
33.264,34.237,,,
33.264,34.221,,,
33.27,34.205,,,
33.278,34.191,,,
33.29,34.177,,,
33.304,34.165,,,
33.319,34.154,,,
33.334,34.145,,,
33.349,34.138,,,
33.364,34.133,,,
33.378,34.13,,,
33.391,34.129,,,
33.404,34.131,,,
33.415,34.135,,,
33.427,34.142,,,
33.438,34.152,,,
33.447,34.163,,,
33.455,34.175,,,
33.46,34.187,,,
33.463,34.198,,,
33.463,34.207,,,
33.46,34.213,,,
33.453,34.216,,,
33.444,34.216,,,
33.431,34.211,,,
33.416,34.202,,,
33.399,34.19,,,
33.381,34.173,,,
33.362,34.153,,,
33.342,34.129,,,
33.321,34.101,,,
33.3,34.071,,,
33.278,34.037,,,
33.254,34,,,
33.23,33.961,,,
33.206,33.919,,,
33.18,33.877,,,
33.152,33.833,,,
33.124,33.789,,,
33.093,33.745,,,
33.061,33.702,,,
33.028,33.659,,,
32.994,33.618,,,
32.958,33.578,,,
32.922,33.539,,,
32.886,33.503,,,
32.85,33.467,,,
32.815,33.434,,,
32.781,33.402,,,
32.748,33.373,,,
32.715,33.345,,,
32.683,33.318,,,
32.651,33.294,,,
32.62,33.271,,,
32.59,33.249,,,
32.56,33.229,,,
32.531,33.209,,,
32.502,33.19,,,
32.474,33.17,,,
32.446,33.151,,,
32.42,33.131,,,
32.394,33.112,,,
32.369,33.092,,,
32.345,33.072,,,
32.321,33.052,,,
32.298,33.031,,,
32.275,33.011,,,
32.252,32.99,,,
32.229,32.969,,,
32.208,32.948,,,
32.186,32.926,,,
32.165,32.905,,,
32.145,32.884,,,
32.125,32.864,,,
32.105,32.844,,,
32.085,32.825,,,
32.065,32.806,,,
32.045,32.787,,,
32.025,32.769,,,
32.003,32.75,,,
31.981,32.733,,,
31.957,32.718,,,
31.932,32.706,,,
31.906,32.699,,,
31.881,32.7,,,
31.856,32.711,,,
31.833,32.734,,,
31.813,32.771,,,
31.799,32.824,,,
31.793,32.894,,,
31.798,32.984,,,
31.816,33.092,,,
31.85,33.218,,,
31.904,33.362,,,
31.978,33.521,,,
32.076,33.694,,,
32.196,33.877,,,
32.339,34.069,,,
32.505,34.266,,,
32.692,34.464,,,
32.898,34.661,,,
33.119,34.853,,,
33.354,35.039,,,
33.597,35.215,,,
33.844,35.38,,,
34.092,35.532,,,
34.338,35.668,,,
34.576,35.789,,,
34.804,35.893,,,
35.02,35.981,,,
35.22,36.052,,,
35.404,36.108,,,
35.568,36.148,,,
35.713,36.173,,,
35.838,36.185,,,
35.943,36.184,,,
36.029,36.171,,,
36.096,36.149,,,
36.145,36.117,,,
36.177,36.078,,,
36.194,36.033,,,
36.197,35.983,,,
36.188,35.93,,,
36.168,35.874,,,
36.138,35.815,,,
36.1,35.755,,,
36.055,35.694,,,
36.004,35.634,,,
35.947,35.573,,,
35.885,35.515,,,
35.82,35.458,,,
35.752,35.402,,,
35.683,35.349,,,
35.613,35.299,,,
35.542,35.25,,,
35.473,35.204,,,
35.405,35.16,,,
35.339,35.118,,,
35.274,35.079,,,
35.212,35.042,,,
35.152,35.008,,,
35.094,34.977,,,
35.037,34.949,,,
34.984,34.923,,,
34.932,34.898,,,
34.883,34.875,,,
34.835,34.854,,,
34.79,34.833,,,
34.747,34.812,,,
34.705,34.792,,,
34.663,34.771,,,
34.623,34.75,,,
34.582,34.728,,,
34.541,34.705,,,
34.499,34.681,,,
34.457,34.656,,,
34.413,34.631,,,
34.369,34.605,,,
34.324,34.58,,,
34.279,34.555,,,
34.234,34.531,,,
34.189,34.509,,,
34.147,34.487,,,
34.107,34.467,,,
34.07,34.447,,,
34.038,34.428,,,
34.01,34.411,,,
33.986,34.395,,,
33.967,34.38,,,
33.953,34.367,,,
33.944,34.356,,,
33.939,34.348,,,
33.938,34.341,,,
33.94,34.336,,,
33.946,34.333,,,
33.955,34.332,,,
33.966,34.332,,,
33.978,34.334,,,
33.992,34.338,,,
34.007,34.343,,,
34.022,34.348,,,
34.038,34.354,,,
34.053,34.359,,,
34.066,34.363,,,
34.078,34.364,,,
34.088,34.363,,,
34.096,34.36,,,
34.102,34.352,,,
34.105,34.342,,,
34.106,34.328,,,
34.105,34.311,,,
34.101,34.291,,,
34.094,34.269,,,
34.085,34.245,,,
34.074,34.22,,,
34.061,34.193,,,
34.046,34.166,,,
34.028,34.139,,,
34.008,34.111,,,
33.987,34.082,,,
33.964,34.053,,,
33.94,34.025,,,
33.914,33.997,,,
33.887,33.971,,,
33.858,33.945,,,
33.828,33.92,,,
33.796,33.897,,,
33.762,33.874,,,
33.728,33.852,,,
33.692,33.831,,,
33.656,33.811,,,
33.619,33.792,,,
33.581,33.773,,,
33.543,33.755,,,
33.505,33.737,,,
33.468,33.72,,,
33.43,33.703,,,
33.394,33.686,,,
33.358,33.669,,,
33.323,33.652,,,
33.29,33.635,,,
33.257,33.618,,,
33.226,33.6,,,
33.197,33.582,,,
33.169,33.563,,,
33.143,33.544,,,
33.118,33.525,,,
33.094,33.505,,,
33.069,33.486,,,
33.045,33.467,,,
33.021,33.447,,,
32.996,33.427,,,
32.97,33.407,,,
32.944,33.387,,,
32.916,33.367,,,
32.888,33.346,,,
32.86,33.324,,,
32.833,33.303,,,
32.806,33.282,,,
32.78,33.262,,,
32.756,33.244,,,
32.733,33.227,,,
32.711,33.212,,,
32.691,33.198,,,
32.672,33.187,,,
32.653,33.177,,,
32.634,33.168,,,
32.616,33.159,,,
32.598,33.15,,,
32.58,33.14,,,
32.562,33.13,,,
32.546,33.119,,,
32.529,33.107,,,
32.512,33.095,,,
32.494,33.081,,,
32.476,33.067,,,
32.457,33.051,,,
32.437,33.036,,,
32.418,33.02,,,
32.4,33.004,,,
32.382,32.99,,,
32.366,32.979,,,
32.352,32.971,,,
32.342,32.969,,,
32.338,32.975,,,
32.342,32.99,,,
32.357,33.017,,,
32.387,33.057,,,
32.432,33.112,,,
32.497,33.183,,,
32.582,33.272,,,
32.688,33.379,,,
32.816,33.503,,,
32.966,33.645,,,
33.136,33.802,,,
33.326,33.971,,,
33.532,34.15,,,
33.753,34.335,,,
33.984,34.522,,,
34.224,34.71,,,
34.468,34.893,,,
34.713,35.07,,,
34.954,35.237,,,
35.188,35.392,,,
35.411,35.535,,,
35.622,35.663,,,
35.817,35.775,,,
35.996,35.871,,,
36.157,35.95,,,
36.299,36.012,,,
36.421,36.059,,,
36.525,36.09,,,
36.609,36.107,,,
36.674,36.111,,,
36.722,36.103,,,
36.753,36.085,,,
36.769,36.057,,,
36.771,36.022,,,
36.762,35.98,,,
36.742,35.933,,,
36.713,35.882,,,
36.677,35.829,,,
36.635,35.773,,,
36.588,35.716,,,
36.537,35.659,,,
36.481,35.601,,,
36.422,35.543,,,
36.36,35.486,,,
36.296,35.429,,,
36.23,35.373,,,
36.165,35.319,,,
36.1,35.265,,,
36.037,35.213,,,
35.975,35.162,,,
35.915,35.112,,,
35.857,35.063,,,
35.802,35.017,,,
35.749,34.972,,,
35.699,34.93,,,
35.652,34.891,,,
35.607,34.854,,,
35.564,34.82,,,
35.523,34.788,,,
35.484,34.759,,,
35.446,34.733,,,
35.41,34.708,,,
35.375,34.685,,,
35.34,34.664,,,
35.306,34.644,,,
35.271,34.625,,,
35.236,34.605,,,
35.2,34.586,,,
35.163,34.567,,,
35.124,34.547,,,
35.085,34.526,,,
35.045,34.505,,,
35.004,34.484,,,
34.963,34.462,,,
34.923,34.439,,,
34.884,34.417,,,
34.847,34.396,,,
34.812,34.375,,,
34.779,34.357,,,
34.75,34.34,,,
34.724,34.326,,,
34.701,34.315,,,
34.682,34.307,,,
34.667,34.302,,,
34.654,34.301,,,
34.645,34.302,,,
34.638,34.306,,,
34.634,34.312,,,
34.631,34.32,,,
34.63,34.329,,,
34.63,34.339,,,
34.632,34.348,,,
34.634,34.358,,,
34.637,34.368,,,
34.641,34.377,,,
34.645,34.385,,,
34.65,34.393,,,
34.655,34.4,,,
34.659,34.406,,,
34.663,34.412,,,
34.665,34.418,,,
34.665,34.422,,,
34.663,34.425,,,
34.658,34.426,,,
34.65,34.425,,,
34.64,34.421,,,
34.628,34.415,,,
34.613,34.407,,,
34.596,34.396,,,
34.576,34.383,,,
34.555,34.368,,,
34.531,34.352,,,
34.505,34.334,,,
34.48,34.315,,,
34.454,34.295,,,
34.429,34.274,,,
34.403,34.252,,,
34.378,34.229,,,
34.353,34.205,,,
34.327,34.181,,,
34.302,34.156,,,
34.277,34.131,,,
34.252,34.105,,,
34.226,34.079,,,
34.2,34.052,,,
34.173,34.025,,,
34.146,33.997,,,
34.117,33.97,,,
34.087,33.942,,,
34.057,33.916,,,
34.025,33.89,,,
33.992,33.865,,,
33.958,33.842,,,
33.922,33.82,,,
33.885,33.799,,,
33.848,33.779,,,
33.81,33.76,,,
33.772,33.741,,,
33.734,33.723,,,
33.698,33.705,,,
33.662,33.687,,,
33.628,33.669,,,
33.595,33.652,,,
33.564,33.635,,,
33.534,33.618,,,
33.506,33.601,,,
33.479,33.585,,,
33.454,33.569,,,
33.43,33.554,,,
33.407,33.538,,,
33.385,33.522,,,
33.363,33.505,,,
33.342,33.489,,,
33.321,33.472,,,
33.3,33.456,,,
33.279,33.439,,,
33.259,33.423,,,
33.24,33.406,,,
33.22,33.388,,,
33.2,33.37,,,
33.18,33.352,,,
33.158,33.334,,,
33.137,33.316,,,
33.115,33.299,,,
33.093,33.283,,,
33.071,33.27,,,
33.049,33.258,,,
33.026,33.249,,,
33.002,33.243,,,
32.978,33.239,,,
32.953,33.238,,,
32.928,33.239,,,
32.904,33.241,,,
32.88,33.244,,,
32.856,33.246,,,
32.834,33.248,,,
32.812,33.249,,,
32.792,33.249,,,
32.772,33.249,,,
32.754,33.247,,,
32.737,33.245,,,
32.721,33.243,,,
32.705,33.241,,,
32.689,33.241,,,
32.674,33.242,,,
32.659,33.245,,,
32.644,33.251,,,
32.629,33.261,,,
32.614,33.277,,,
32.599,33.299,,,
32.583,33.33,,,
32.566,33.372,,,
32.549,33.427,,,
32.532,33.495,,,
32.515,33.578,,,
32.498,33.676,,,
32.483,33.789,,,
32.47,33.916,,,
32.462,34.054,,,
32.462,34.202,,,
32.472,34.358,,,
32.494,34.519,,,
32.533,34.682,,,
32.589,34.843,,,
32.664,35,,,
32.761,35.151,,,
32.88,35.292,,,
33.02,35.422,,,
33.182,35.538,,,
33.365,35.641,,,
33.566,35.729,,,
33.783,35.803,,,
34.014,35.862,,,
34.253,35.907,,,
34.499,35.938,,,
34.747,35.956,,,
34.993,35.962,,,
35.235,35.956,,,
35.468,35.939,,,
35.691,35.913,,,
35.9,35.88,,,
36.092,35.839,,,
36.267,35.793,,,
36.424,35.742,,,
36.561,35.687,,,
36.677,35.629,,,
36.774,35.568,,,
36.851,35.507,,,
36.91,35.446,,,
36.951,35.384,,,
36.976,35.324,,,
36.987,35.264,,,
36.984,35.206,,,
36.969,35.149,,,
36.944,35.094,,,
36.91,35.042,,,
36.868,34.992,,,
36.819,34.947,,,
36.765,34.905,,,
36.707,34.867,,,
36.644,34.832,,,
36.579,34.801,,,
36.511,34.773,,,
36.442,34.747,,,
36.371,34.725,,,
36.301,34.704,,,
36.23,34.685,,,
36.16,34.668,,,
36.091,34.651,,,
36.025,34.635,,,
35.962,34.62,,,
35.902,34.606,,,
35.845,34.592,,,
35.791,34.578,,,
35.741,34.565,,,
35.694,34.551,,,
35.651,34.537,,,
35.61,34.522,,,
35.571,34.508,,,
35.533,34.493,,,
35.497,34.479,,,
35.46,34.465,,,
35.424,34.452,,,
35.386,34.44,,,
35.348,34.429,,,
35.309,34.42,,,
35.267,34.413,,,
35.225,34.408,,,
35.181,34.406,,,
35.136,34.406,,,
35.091,34.409,,,
35.047,34.413,,,
35.003,34.42,,,
34.962,34.429,,,
34.922,34.439,,,
34.886,34.45,,,
34.854,34.463,,,
34.827,34.475,,,
34.804,34.488,,,
34.785,34.5,,,
34.77,34.512,,,
34.76,34.522,,,
34.753,34.531,,,
34.749,34.539,,,
34.748,34.546,,,
34.749,34.552,,,
34.753,34.557,,,
34.759,34.561,,,
34.767,34.565,,,
34.776,34.567,,,
34.785,34.569,,,
34.795,34.57,,,
34.805,34.57,,,
34.813,34.568,,,
34.821,34.565,,,
34.826,34.561,,,
34.83,34.554,,,
34.832,34.545,,,
34.833,34.533,,,
34.832,34.52,,,
34.829,34.504,,,
34.825,34.487,,,
34.82,34.469,,,
34.813,34.448,,,
34.805,34.427,,,
34.795,34.403,,,
34.784,34.378,,,
34.77,34.353,,,
34.755,34.327,,,
34.738,34.3,,,
34.72,34.274,,,
34.701,34.248,,,
34.681,34.223,,,
34.66,34.198,,,
34.638,34.174,,,
34.615,34.151,,,
34.59,34.129,,,
34.565,34.108,,,
34.538,34.089,,,
34.509,34.071,,,
34.478,34.055,,,
34.446,34.04,,,
34.412,34.026,,,
34.376,34.013,,,
34.339,34,,,
34.302,33.987,,,
34.264,33.975,,,
34.227,33.963,,,
34.19,33.95,,,
34.154,33.937,,,
34.119,33.924,,,
34.085,33.911,,,
34.051,33.897,,,
34.019,33.883,,,
33.987,33.869,,,
33.956,33.855,,,
33.925,33.842,,,
33.894,33.829,,,
33.863,33.817,,,
33.832,33.807,,,
33.8,33.797,,,
33.769,33.788,,,
33.736,33.779,,,
33.704,33.77,,,
33.672,33.761,,,
33.641,33.753,,,
33.61,33.744,,,
33.58,33.736,,,
33.551,33.727,,,
33.523,33.719,,,
33.496,33.71,,,
33.47,33.701,,,
33.444,33.692,,,
33.419,33.683,,,
33.395,33.673,,,
33.372,33.663,,,
33.349,33.653,,,
33.326,33.643,,,
33.303,33.634,,,
33.281,33.625,,,
33.26,33.617,,,
33.239,33.609,,,
33.219,33.601,,,
33.198,33.592,,,
33.178,33.583,,,
33.158,33.572,,,
33.138,33.561,,,
33.117,33.549,,,
33.096,33.537,,,
33.075,33.525,,,
33.054,33.513,,,
33.032,33.502,,,
33.011,33.491,,,
32.99,33.481,,,
32.969,33.473,,,
32.948,33.466,,,
32.928,33.46,,,
32.909,33.456,,,
32.891,33.455,,,
32.874,33.458,,,
32.858,33.465,,,
32.842,33.479,,,
32.827,33.5,,,
32.812,33.53,,,
32.798,33.571,,,
32.784,33.626,,,
32.769,33.694,,,
32.755,33.777,,,
32.741,33.875,,,
32.727,33.987,,,
32.713,34.113,,,
32.699,34.251,,,
32.685,34.399,,,
32.671,34.554,,,
32.657,34.715,,,
32.643,34.877,,,
32.628,35.039,,,
32.614,35.197,,,
32.6,35.348,,,
32.586,35.49,,,
32.572,35.622,,,
32.559,35.741,,,
32.547,35.847,,,
32.539,35.938,,,
32.535,36.014,,,
32.54,36.074,,,
32.555,36.119,,,
32.583,36.149,,,
32.627,36.165,,,
32.69,36.169,,,
32.772,36.16,,,
32.876,36.141,,,
33.002,36.113,,,
33.15,36.078,,,
33.319,36.036,,,
33.507,35.988,,,
33.713,35.937,,,
33.934,35.881,,,
34.166,35.824,,,
34.406,35.764,,,
34.65,35.703,,,
34.896,35.642,,,
35.139,35.58,,,
35.376,35.518,,,
35.604,35.458,,,
35.82,35.399,,,
36.023,35.342,,,
36.209,35.287,,,
36.378,35.234,,,
36.529,35.184,,,
36.661,35.135,,,
36.774,35.089,,,
36.868,35.046,,,
36.943,35.005,,,
37.001,34.968,,,
37.042,34.933,,,
37.068,34.902,,,
37.08,34.873,,,
37.08,34.846,,,
37.068,34.821,,,
37.046,34.798,,,
37.015,34.776,,,
36.977,34.755,,,
36.931,34.734,,,
36.88,34.713,,,
36.823,34.691,,,
36.763,34.669,,,
36.7,34.645,,,
36.634,34.622,,,
36.567,34.598,,,
36.498,34.575,,,
36.429,34.552,,,
36.359,34.531,,,
36.289,34.512,,,
36.22,34.496,,,
36.153,34.483,,,
36.086,34.473,,,
36.021,34.467,,,
35.959,34.463,,,
35.897,34.464,,,
35.838,34.467,,,
35.782,34.473,,,
35.727,34.482,,,
35.675,34.493,,,
35.625,34.506,,,
35.576,34.522,,,
35.529,34.54,,,
35.483,34.56,,,
35.438,34.581,,,
35.392,34.603,,,
35.348,34.626,,,
35.304,34.649,,,
35.261,34.672,,,
35.218,34.694,,,
35.177,34.715,,,
35.138,34.734,,,
35.101,34.751,,,
35.066,34.767,,,
35.036,34.78,,,
35.008,34.791,,,
34.985,34.799,,,
34.965,34.803,,,
34.948,34.805,,,
34.935,34.803,,,
34.925,34.798,,,
34.919,34.79,,,
34.915,34.779,,,
34.915,34.766,,,
34.918,34.749,,,
34.922,34.73,,,
34.929,34.708,,,
34.936,34.685,,,
34.945,34.66,,,
34.955,34.634,,,
34.966,34.608,,,
34.979,34.581,,,
34.992,34.555,,,
35.007,34.529,,,
35.022,34.505,,,
35.038,34.481,,,
35.053,34.458,,,
35.068,34.436,,,
35.081,34.414,,,
35.092,34.393,,,
35.101,34.371,,,
35.107,34.35,,,
35.111,34.328,,,
35.112,34.306,,,
35.112,34.284,,,
35.11,34.263,,,
35.105,34.242,,,
35.098,34.222,,,
35.088,34.201,,,
35.076,34.182,,,
35.06,34.162,,,
35.042,34.143,,,
35.021,34.124,,,
34.998,34.105,,,
34.971,34.085,,,
34.943,34.066,,,
34.912,34.047,,,
34.88,34.028,,,
34.846,34.01,,,
34.812,33.993,,,
34.777,33.976,,,
34.741,33.961,,,
34.706,33.946,,,
34.671,33.932,,,
34.636,33.919,,,
34.602,33.905,,,
34.569,33.892,,,
34.535,33.879,,,
34.501,33.866,,,
34.467,33.855,,,
34.434,33.844,,,
34.4,33.834,,,
34.367,33.825,,,
34.334,33.817,,,
34.302,33.809,,,
34.27,33.802,,,
34.238,33.794,,,
34.207,33.787,,,
34.176,33.779,,,
34.145,33.77,,,
34.114,33.761,,,
34.083,33.752,,,
34.051,33.742,,,
34.02,33.732,,,
33.988,33.722,,,
33.956,33.713,,,
33.924,33.703,,,
33.892,33.693,,,
33.86,33.682,,,
33.83,33.672,,,
33.8,33.66,,,
33.772,33.648,,,
33.744,33.636,,,
33.717,33.624,,,
33.69,33.613,,,
33.664,33.602,,,
33.638,33.591,,,
33.614,33.583,,,
33.59,33.576,,,
33.568,33.572,,,
33.547,33.57,,,
33.527,33.573,,,
33.507,33.581,,,
33.487,33.595,,,
33.468,33.619,,,
33.448,33.653,,,
33.429,33.7,,,
33.41,33.76,,,
33.391,33.834,,,
33.372,33.923,,,
33.353,34.026,,,
33.334,34.143,,,
33.316,34.271,,,
33.298,34.409,,,
33.28,34.556,,,
33.261,34.709,,,
33.241,34.865,,,
33.221,35.024,,,
33.2,35.182,,,
33.178,35.336,,,
33.156,35.484,,,
33.135,35.624,,,
33.113,35.754,,,
33.092,35.872,,,
33.072,35.977,,,
33.054,36.068,,,
33.035,36.146,,,
33.017,36.21,,,
32.999,36.261,,,
32.981,36.299,,,
32.961,36.325,,,
32.942,36.339,,,
32.923,36.342,,,
32.904,36.337,,,
32.885,36.322,,,
32.866,36.3,,,
32.847,36.271,,,
32.829,36.237,,,
32.811,36.197,,,
32.794,36.153,,,
32.777,36.106,,,
32.762,36.055,,,
32.747,36.003,,,
32.734,35.95,,,
32.724,35.895,,,
32.718,35.841,,,
32.718,35.785,,,
32.725,35.73,,,
32.744,35.674,,,
32.775,35.617,,,
32.824,35.561,,,
32.892,35.506,,,
32.982,35.452,,,
33.094,35.399,,,
33.231,35.349,,,
33.39,35.301,,,
33.572,35.255,,,
33.774,35.213,,,
33.993,35.174,,,
34.228,35.138,,,
34.474,35.104,,,
34.729,35.073,,,
34.989,35.043,,,
35.25,35.015,,,
35.51,34.989,,,
35.765,34.964,,,
36.011,34.94,,,
36.246,34.918,,,
36.469,34.896,,,
36.676,34.876,,,
36.868,34.857,,,
37.042,34.839,,,
37.197,34.822,,,
37.335,34.806,,,
37.454,34.791,,,
37.556,34.778,,,
37.641,34.766,,,
37.71,34.755,,,
37.764,34.746,,,
37.804,34.738,,,
37.831,34.732,,,
37.844,34.727,,,
37.845,34.724,,,
37.835,34.723,,,
37.814,34.725,,,
37.783,34.729,,,
37.743,34.735,,,
37.695,34.744,,,
37.64,34.755,,,
37.58,34.77,,,
37.514,34.787,,,
37.445,34.807,,,
37.373,34.829,,,
37.298,34.853,,,
37.222,34.879,,,
37.146,34.906,,,
37.069,34.934,,,
36.994,34.961,,,
36.92,34.987,,,
36.848,35.011,,,
36.777,35.033,,,
36.709,35.052,,,
36.642,35.068,,,
36.577,35.081,,,
36.513,35.091,,,
36.452,35.097,,,
36.392,35.1,,,
36.333,35.099,,,
36.276,35.095,,,
36.22,35.089,,,
36.165,35.081,,,
36.111,35.07,,,
36.059,35.058,,,
36.007,35.044,,,
35.957,35.03,,,
35.907,35.014,,,
35.859,34.998,,,
35.813,34.982,,,
35.768,34.964,,,
35.725,34.946,,,
35.685,34.926,,,
35.647,34.906,,,
35.613,34.886,,,
35.583,34.865,,,
35.558,34.845,,,
35.538,34.826,,,
35.523,34.806,,,
35.514,34.787,,,
35.51,34.769,,,
35.511,34.75,,,
35.516,34.732,,,
35.525,34.715,,,
35.538,34.697,,,
35.553,34.68,,,
35.571,34.663,,,
35.59,34.646,,,
35.609,34.628,,,
35.629,34.611,,,
35.649,34.593,,,
35.668,34.574,,,
35.687,34.553,,,
35.705,34.532,,,
35.721,34.509,,,
35.735,34.487,,,
35.748,34.465,,,
35.758,34.443,,,
35.766,34.423,,,
35.772,34.404,,,
35.776,34.387,,,
35.777,34.371,,,
35.775,34.356,,,
35.769,34.342,,,
35.76,34.329,,,
35.748,34.318,,,
35.732,34.307,,,
35.713,34.296,,,
35.691,34.286,,,
35.667,34.277,,,
35.64,34.267,,,
35.611,34.258,,,
35.581,34.249,,,
35.549,34.24,,,
35.516,34.231,,,
35.483,34.223,,,
35.449,34.214,,,
35.414,34.206,,,
35.378,34.198,,,
35.342,34.19,,,
35.305,34.181,,,
35.268,34.172,,,
35.231,34.163,,,
35.193,34.154,,,
35.154,34.144,,,
35.115,34.133,,,
35.076,34.122,,,
35.037,34.111,,,
34.998,34.1,,,
34.96,34.088,,,
34.921,34.078,,,
34.884,34.068,,,
34.848,34.059,,,
34.813,34.05,,,
34.778,34.042,,,
34.745,34.035,,,
34.711,34.03,,,
34.678,34.028,,,
34.644,34.028,,,
34.61,34.033,,,
34.575,34.043,,,
34.54,34.06,,,
34.503,34.087,,,
34.466,34.123,,,
34.428,34.171,,,
34.391,34.232,,,
34.354,34.308,,,
34.317,34.399,,,
34.282,34.504,,,
34.246,34.625,,,
34.212,34.759,,,
34.178,34.906,,,
34.145,35.064,,,
34.112,35.231,,,
34.081,35.405,,,
34.051,35.582,,,
34.022,35.761,,,
33.994,35.939,,,
33.965,36.113,,,
33.938,36.281,,,
33.91,36.441,,,
33.883,36.59,,,
33.855,36.727,,,
33.828,36.85,,,
33.8,36.958,,,
33.772,37.051,,,
33.743,37.128,,,
33.714,37.19,,,
33.685,37.238,,,
33.655,37.271,,,
33.626,37.291,,,
33.598,37.298,,,
33.57,37.294,,,
33.544,37.278,,,
33.518,37.253,,,
33.493,37.221,,,
33.468,37.182,,,
33.444,37.137,,,
33.42,37.089,,,
33.397,37.037,,,
33.374,36.984,,,
33.352,36.93,,,
33.329,36.876,,,
33.305,36.822,,,
33.282,36.768,,,
33.257,36.716,,,
33.232,36.665,,,
33.207,36.617,,,
33.181,36.57,,,
33.156,36.526,,,
33.132,36.484,,,
33.107,36.443,,,
33.084,36.406,,,
33.062,36.37,,,
33.042,36.336,,,
33.025,36.305,,,
33.015,36.275,,,
33.013,36.247,,,
33.022,36.22,,,
33.047,36.193,,,
33.089,36.167,,,
33.153,36.141,,,
33.24,36.115,,,
33.351,36.088,,,
33.487,36.061,,,
33.649,36.033,,,
33.835,36.003,,,
34.043,35.972,,,
34.272,35.941,,,
34.519,35.908,,,
34.779,35.876,,,
35.05,35.844,,,
35.328,35.813,,,
35.608,35.783,,,
35.888,35.754,,,
36.164,35.727,,,
36.432,35.703,,,
36.69,35.68,,,
36.936,35.661,,,
37.166,35.645,,,
37.38,35.633,,,
37.576,35.625,,,
37.753,35.622,,,
37.91,35.624,,,
38.047,35.631,,,
38.165,35.641,,,
38.264,35.655,,,
38.344,35.673,,,
38.408,35.692,,,
38.456,35.713,,,
38.489,35.735,,,
38.508,35.758,,,
38.515,35.78,,,
38.509,35.803,,,
38.494,35.825,,,
38.469,35.847,,,
38.436,35.869,,,
38.395,35.89,,,
38.347,35.91,,,
38.292,35.928,,,
38.23,35.945,,,
38.162,35.959,,,
38.09,35.97,,,
38.012,35.978,,,
37.931,35.983,,,
37.848,35.986,,,
37.762,35.986,,,
37.676,35.984,,,
37.588,35.98,,,
37.501,35.973,,,
37.415,35.964,,,
37.329,35.952,,,
37.245,35.938,,,
37.161,35.921,,,
37.078,35.901,,,
36.996,35.88,,,
36.915,35.856,,,
36.834,35.831,,,
36.755,35.805,,,
36.677,35.777,,,
36.6,35.75,,,
36.524,35.723,,,
36.45,35.696,,,
36.379,35.67,,,
36.311,35.645,,,
36.246,35.621,,,
36.185,35.597,,,
36.128,35.575,,,
36.075,35.552,,,
36.026,35.529,,,
35.981,35.506,,,
35.941,35.484,,,
35.906,35.461,,,
35.875,35.437,,,
35.849,35.414,,,
35.826,35.39,,,
35.808,35.365,,,
35.795,35.339,,,
35.786,35.313,,,
35.781,35.285,,,
35.781,35.256,,,
35.785,35.227,,,
35.793,35.196,,,
35.804,35.166,,,
35.817,35.136,,,
35.833,35.106,,,
35.85,35.076,,,
35.869,35.048,,,
35.888,35.02,,,
35.907,34.995,,,
35.926,34.971,,,
35.944,34.948,,,
35.961,34.927,,,
35.976,34.908,,,
35.989,34.89,,,
36,34.873,,,
36.008,34.858,,,
36.014,34.844,,,
36.016,34.832,,,
36.015,34.82,,,
36.011,34.808,,,
36.004,34.797,,,
35.993,34.785,,,
35.98,34.773,,,
35.963,34.76,,,
35.943,34.746,,,
35.92,34.732,,,
35.894,34.716,,,
35.865,34.699,,,
35.834,34.682,,,
35.8,34.664,,,
35.765,34.645,,,
35.728,34.626,,,
35.691,34.608,,,
35.652,34.589,,,
35.614,34.57,,,
35.574,34.551,,,
35.535,34.534,,,
35.495,34.517,,,
35.454,34.502,,,
35.413,34.488,,,
35.37,34.476,,,
35.327,34.468,,,
35.283,34.464,,,
35.238,34.465,,,
35.193,34.473,,,
35.148,34.49,,,
35.103,34.517,,,
35.058,34.556,,,
35.014,34.609,,,
34.97,34.677,,,
34.927,34.762,,,
34.884,34.863,,,
34.841,34.982,,,
34.798,35.117,,,
34.755,35.268,,,
34.712,35.431,,,
34.669,35.607,,,
34.625,35.791,,,
34.582,35.981,,,
34.538,36.174,,,
34.495,36.366,,,
34.453,36.557,,,
34.411,36.742,,,
34.37,36.919,,,
34.33,37.088,,,
34.291,37.245,,,
34.253,37.392,,,
34.216,37.526,,,
34.181,37.648,,,
34.147,37.756,,,
34.114,37.851,,,
34.081,37.932,,,
34.049,37.999,,,
34.017,38.052,,,
33.986,38.093,,,
33.955,38.121,,,
33.923,38.138,,,
33.892,38.144,,,
33.862,38.141,,,
33.831,38.129,,,
33.801,38.111,,,
33.771,38.086,,,
33.741,38.056,,,
33.712,38.022,,,
33.684,37.985,,,
33.657,37.945,,,
33.63,37.903,,,
33.604,37.859,,,
33.578,37.815,,,
33.551,37.771,,,
33.523,37.727,,,
33.494,37.683,,,
33.464,37.64,,,
33.431,37.597,,,
33.396,37.555,,,
33.36,37.514,,,
33.322,37.473,,,
33.283,37.432,,,
33.243,37.392,,,
33.203,37.353,,,
33.164,37.314,,,
33.126,37.276,,,
33.091,37.239,,,
33.059,37.203,,,
33.031,37.169,,,
33.011,37.136,,,
33,37.105,,,
33.001,37.074,,,
33.018,37.045,,,
33.052,37.015,,,
33.106,36.986,,,
33.181,36.957,,,
33.281,36.927,,,
33.406,36.896,,,
33.556,36.866,,,
33.732,36.835,,,
33.933,36.804,,,
34.158,36.774,,,
34.404,36.744,,,
34.668,36.717,,,
34.947,36.691,,,
35.238,36.667,,,
35.536,36.646,,,
35.839,36.628,,,
36.142,36.613,,,
36.443,36.601,,,
36.739,36.592,,,
37.025,36.586,,,
37.3,36.583,,,
37.562,36.583,,,
37.806,36.586,,,
38.032,36.592,,,
38.239,36.599,,,
38.424,36.609,,,
38.589,36.622,,,
38.732,36.635,,,
38.853,36.65,,,
38.953,36.665,,,
39.032,36.68,,,
39.091,36.695,,,
39.132,36.708,,,
39.156,36.719,,,
39.165,36.729,,,
39.16,36.736,,,
39.143,36.74,,,
39.115,36.742,,,
39.078,36.741,,,
39.035,36.737,,,
38.985,36.73,,,
38.931,36.721,,,
38.872,36.711,,,
38.81,36.698,,,
38.744,36.683,,,
38.675,36.667,,,
38.603,36.649,,,
38.529,36.629,,,
38.453,36.607,,,
38.375,36.583,,,
38.296,36.559,,,
38.215,36.534,,,
38.134,36.508,,,
38.052,36.483,,,
37.97,36.457,,,
37.888,36.431,,,
37.808,36.405,,,
37.728,36.378,,,
37.649,36.35,,,
37.57,36.322,,,
37.492,36.293,,,
37.413,36.262,,,
37.334,36.23,,,
37.254,36.197,,,
37.173,36.162,,,
37.091,36.126,,,
37.008,36.09,,,
36.926,36.054,,,
36.844,36.018,,,
36.766,35.983,,,
36.69,35.948,,,
36.619,35.915,,,
36.552,35.882,,,
36.49,35.85,,,
36.434,35.819,,,
36.384,35.787,,,
36.34,35.756,,,
36.302,35.725,,,
36.27,35.694,,,
36.245,35.663,,,
36.227,35.632,,,
36.214,35.6,,,
36.208,35.569,,,
36.208,35.539,,,
36.213,35.509,,,
36.222,35.48,,,
36.236,35.452,,,
36.252,35.425,,,
36.27,35.398,,,
36.29,35.372,,,
36.309,35.347,,,
36.328,35.322,,,
36.345,35.298,,,
36.361,35.275,,,
36.374,35.252,,,
36.385,35.229,,,
36.394,35.207,,,
36.401,35.185,,,
36.406,35.163,,,
36.408,35.141,,,
36.407,35.12,,,
36.404,35.1,,,
36.397,35.079,,,
36.389,35.059,,,
36.378,35.038,,,
36.365,35.018,,,
36.351,34.997,,,
36.335,34.976,,,
36.317,34.954,,,
36.298,34.932,,,
36.276,34.91,,,
36.253,34.888,,,
36.227,34.867,,,
36.2,34.848,,,
36.17,34.831,,,
36.137,34.819,,,
36.102,34.812,,,
36.063,34.814,,,
36.023,34.826,,,
35.981,34.85,,,
35.938,34.889,,,
35.894,34.945,,,
35.849,35.019,,,
35.804,35.112,,,
35.758,35.223,,,
35.713,35.353,,,
35.667,35.499,,,
35.62,35.66,,,
35.573,35.834,,,
35.526,36.018,,,
35.478,36.21,,,
35.43,36.406,,,
35.382,36.603,,,
35.335,36.799,,,
35.287,36.991,,,
35.24,37.176,,,
35.192,37.353,,,
35.145,37.518,,,
35.098,37.67,,,
35.052,37.81,,,
35.006,37.935,,,
34.961,38.047,,,
34.916,38.144,,,
34.872,38.227,,,
34.828,38.296,,,
34.786,38.352,,,
34.744,38.396,,,
34.703,38.428,,,
34.663,38.449,,,
34.623,38.46,,,
34.583,38.463,,,
34.543,38.458,,,
34.502,38.445,,,
34.461,38.425,,,
34.42,38.399,,,
34.378,38.367,,,
34.335,38.33,,,
34.292,38.289,,,
34.249,38.245,,,
34.206,38.197,,,
34.164,38.146,,,
34.123,38.094,,,
34.082,38.041,,,
34.043,37.988,,,
34.005,37.934,,,
33.967,37.88,,,
33.929,37.827,,,
33.892,37.774,,,
33.853,37.723,,,
33.814,37.673,,,
33.773,37.625,,,
33.732,37.578,,,
33.691,37.533,,,
33.649,37.489,,,
33.608,37.446,,,
33.567,37.404,,,
33.526,37.363,,,
33.488,37.323,,,
33.451,37.283,,,
33.419,37.243,,,
33.391,37.203,,,
33.372,37.162,,,
33.364,37.122,,,
33.371,37.081,,,
33.395,37.039,,,
33.441,36.997,,,
33.512,36.955,,,
33.61,36.913,,,
33.739,36.873,,,
33.897,36.834,,,
34.087,36.798,,,
34.307,36.765,,,
34.555,36.735,,,
34.829,36.709,,,
35.125,36.686,,,
35.441,36.667,,,
35.771,36.651,,,
36.112,36.638,,,
36.459,36.629,,,
36.808,36.622,,,
37.154,36.617,,,
37.493,36.615,,,
37.823,36.615,,,
38.14,36.617,,,
38.442,36.621,,,
38.726,36.626,,,
38.99,36.633,,,
39.233,36.641,,,
39.453,36.651,,,
39.651,36.662,,,
39.825,36.672,,,
39.977,36.683,,,
40.106,36.694,,,
40.213,36.703,,,
40.3,36.711,,,
40.368,36.717,,,
40.419,36.72,,,
40.453,36.72,,,
40.473,36.716,,,
40.48,36.709,,,
40.475,36.698,,,
40.461,36.685,,,
40.438,36.67,,,
40.406,36.652,,,
40.368,36.632,,,
40.324,36.611,,,
40.274,36.59,,,
40.219,36.567,,,
40.159,36.544,,,
40.095,36.522,,,
40.027,36.501,,,
39.954,36.48,,,
39.878,36.459,,,
39.798,36.439,,,
39.714,36.419,,,
39.628,36.398,,,
39.54,36.376,,,
39.452,36.353,,,
39.363,36.328,,,
39.274,36.302,,,
39.186,36.275,,,
39.099,36.247,,,
39.013,36.217,,,
38.928,36.186,,,
38.843,36.154,,,
38.759,36.122,,,
38.675,36.088,,,
38.591,36.054,,,
38.507,36.019,,,
38.423,35.984,,,
38.34,35.948,,,
38.256,35.912,,,
38.173,35.875,,,
38.091,35.839,,,
38.01,35.803,,,
37.93,35.767,,,
37.853,35.731,,,
37.778,35.695,,,
37.706,35.659,,,
37.637,35.623,,,
37.571,35.587,,,
37.509,35.552,,,
37.451,35.517,,,
37.398,35.484,,,
37.351,35.453,,,
37.31,35.423,,,
37.274,35.395,,,
37.244,35.369,,,
37.219,35.343,,,
37.201,35.317,,,
37.188,35.292,,,
37.181,35.267,,,
37.178,35.242,,,
37.18,35.217,,,
37.184,35.191,,,
37.19,35.165,,,
37.197,35.138,,,
37.204,35.111,,,
37.212,35.083,,,
37.218,35.054,,,
37.222,35.025,,,
37.225,34.996,,,
37.225,34.967,,,
37.221,34.939,,,
37.215,34.912,,,
37.205,34.887,,,
37.191,34.867,,,
37.174,34.852,,,
37.153,34.846,,,
37.129,34.85,,,
37.102,34.868,,,
37.072,34.901,,,
37.039,34.95,,,
37.003,35.016,,,
36.964,35.101,,,
36.922,35.205,,,
36.877,35.327,,,
36.829,35.466,,,
36.779,35.622,,,
36.726,35.791,,,
36.67,35.972,,,
36.613,36.161,,,
36.554,36.356,,,
36.494,36.553,,,
36.432,36.75,,,
36.369,36.945,,,
36.305,37.133,,,
36.241,37.314,,,
36.177,37.486,,,
36.113,37.646,,,
36.048,37.794,,,
35.983,37.929,,,
35.918,38.05,,,
35.854,38.157,,,
35.789,38.25,,,
35.725,38.33,,,
35.661,38.396,,,
35.597,38.448,,,
35.534,38.488,,,
35.472,38.515,,,
35.411,38.53,,,
35.351,38.533,,,
35.292,38.526,,,
35.234,38.509,,,
35.177,38.483,,,
35.12,38.449,,,
35.064,38.408,,,
35.009,38.362,,,
34.955,38.31,,,
34.901,38.255,,,
34.847,38.196,,,
34.794,38.136,,,
34.741,38.074,,,
34.687,38.011,,,
34.634,37.948,,,
34.58,37.885,,,
34.526,37.823,,,
34.473,37.763,,,
34.419,37.704,,,
34.366,37.647,,,
34.313,37.592,,,
34.261,37.539,,,
34.21,37.488,,,
34.16,37.438,,,
34.111,37.389,,,
34.063,37.34,,,
34.017,37.291,,,
33.971,37.242,,,
33.926,37.192,,,
33.881,37.141,,,
33.837,37.09,,,
33.792,37.038,,,
33.746,36.984,,,
33.7,36.929,,,
33.654,36.874,,,
33.606,36.818,,,
33.559,36.762,,,
33.511,36.707,,,
33.462,36.654,,,
33.413,36.604,,,
33.365,36.557,,,
33.318,36.515,,,
33.276,36.478,,,
33.24,36.446,,,
33.212,36.42,,,
33.198,36.399,,,
33.199,36.384,,,
33.22,36.375,,,
33.263,36.37,,,
33.334,36.37,,,
33.434,36.374,,,
33.566,36.381,,,
33.731,36.391,,,
33.929,36.403,,,
34.16,36.416,,,
34.421,36.43,,,
34.71,36.444,,,
35.022,36.459,,,
35.355,36.473,,,
35.704,36.486,,,
36.064,36.498,,,
36.429,36.51,,,
36.797,36.519,,,
37.161,36.527,,,
37.519,36.533,,,
37.867,36.536,,,
38.202,36.537,,,
38.521,36.535,,,
38.823,36.531,,,
39.104,36.525,,,
39.364,36.516,,,
39.6,36.504,,,
39.813,36.489,,,
40.002,36.472,,,
40.167,36.452,,,
40.309,36.43,,,
40.429,36.406,,,
40.527,36.38,,,
40.604,36.353,,,
40.662,36.325,,,
40.702,36.295,,,
40.725,36.264,,,
40.734,36.232,,,
40.729,36.199,,,
40.712,36.164,,,
40.685,36.128,,,
40.647,36.091,,,
40.601,36.053,,,
40.547,36.014,,,
40.487,35.973,,,
40.422,35.932,,,
40.352,35.891,,,
40.28,35.849,,,
40.206,35.807,,,
40.13,35.765,,,
40.052,35.724,,,
39.974,35.683,,,
39.894,35.643,,,
39.813,35.604,,,
39.729,35.565,,,
39.644,35.526,,,
39.556,35.489,,,
39.467,35.453,,,
39.376,35.417,,,
39.283,35.383,,,
39.19,35.351,,,
39.095,35.32,,,
39.001,35.29,,,
38.906,35.261,,,
38.811,35.233,,,
38.717,35.205,,,
38.623,35.177,,,
38.528,35.149,,,
38.433,35.119,,,
38.338,35.089,,,
38.242,35.058,,,
38.147,35.027,,,
38.053,34.995,,,
37.961,34.963,,,
37.872,34.93,,,
37.787,34.897,,,
37.706,34.864,,,
37.631,34.831,,,
37.56,34.799,,,
37.495,34.766,,,
37.437,34.734,,,
37.383,34.702,,,
37.335,34.671,,,
37.291,34.64,,,
37.252,34.609,,,
37.216,34.58,,,
37.184,34.552,,,
37.155,34.526,,,
37.129,34.505,,,
37.106,34.489,,,
37.086,34.483,,,
37.068,34.488,,,
37.053,34.507,,,
37.04,34.541,,,
37.029,34.594,,,
37.02,34.666,,,
37.011,34.757,,,
37.003,34.868,,,
36.994,34.999,,,
36.986,35.146,,,
36.976,35.311,,,
36.965,35.489,,,
36.953,35.68,,,
36.938,35.88,,,
36.922,36.087,,,
36.903,36.299,,,
36.881,36.513,,,
36.856,36.728,,,
36.827,36.939,,,
36.796,37.146,,,
36.76,37.346,,,
36.722,37.537,,,
36.68,37.717,,,
36.636,37.885,,,
36.59,38.04,,,
36.542,38.18,,,
36.492,38.306,,,
36.441,38.418,,,
36.389,38.515,,,
36.335,38.597,,,
36.281,38.666,,,
36.225,38.722,,,
36.167,38.764,,,
36.107,38.795,,,
36.044,38.815,,,
35.98,38.824,,,
35.913,38.823,,,
35.845,38.813,,,
35.775,38.795,,,
35.705,38.768,,,
35.633,38.735,,,
35.562,38.696,,,
35.49,38.652,,,
35.42,38.603,,,
35.35,38.55,,,
35.281,38.494,,,
35.213,38.435,,,
35.146,38.375,,,
35.08,38.314,,,
35.014,38.252,,,
34.949,38.191,,,
34.884,38.13,,,
34.82,38.07,,,
34.756,38.011,,,
34.694,37.954,,,
34.632,37.898,,,
34.57,37.843,,,
34.508,37.789,,,
34.446,37.736,,,
34.385,37.684,,,
34.324,37.633,,,
34.263,37.582,,,
34.202,37.53,,,
34.142,37.479,,,
34.082,37.427,,,
34.023,37.375,,,
33.964,37.322,,,
33.906,37.269,,,
33.849,37.217,,,
33.792,37.164,,,
33.735,37.113,,,
33.679,37.062,,,
33.624,37.012,,,
33.569,36.964,,,
33.515,36.917,,,
33.461,36.872,,,
33.408,36.83,,,
33.356,36.79,,,
33.303,36.754,,,
33.25,36.722,,,
33.197,36.693,,,
33.144,36.668,,,
33.091,36.646,,,
33.039,36.629,,,
32.987,36.615,,,
32.936,36.604,,,
32.886,36.597,,,
32.837,36.592,,,
32.79,36.59,,,
32.747,36.591,,,
32.708,36.594,,,
32.676,36.598,,,
32.652,36.604,,,
32.642,36.611,,,
32.646,36.619,,,
32.67,36.628,,,
32.716,36.637,,,
32.788,36.645,,,
32.889,36.653,,,
33.02,36.66,,,
33.183,36.665,,,
33.379,36.668,,,
33.607,36.668,,,
33.866,36.666,,,
34.153,36.659,,,
34.466,36.649,,,
34.8,36.636,,,
35.15,36.619,,,
35.511,36.598,,,
35.879,36.575,,,
36.249,36.548,,,
36.616,36.519,,,
36.976,36.489,,,
37.323,36.456,,,
37.656,36.422,,,
37.97,36.387,,,
38.262,36.35,,,
38.532,36.313,,,
38.776,36.275,,,
38.995,36.235,,,
39.188,36.195,,,
39.355,36.153,,,
39.497,36.111,,,
39.616,36.068,,,
39.711,36.025,,,
39.786,35.981,,,
39.84,35.937,,,
39.876,35.893,,,
39.895,35.848,,,
39.897,35.803,,,
39.884,35.758,,,
39.857,35.714,,,
39.817,35.669,,,
39.767,35.624,,,
39.708,35.579,,,
39.64,35.535,,,
39.566,35.49,,,
39.487,35.446,,,
39.404,35.403,,,
39.317,35.359,,,
39.227,35.317,,,
39.135,35.275,,,
39.041,35.233,,,
38.947,35.192,,,
38.851,35.151,,,
38.756,35.11,,,
38.66,35.071,,,
38.563,35.031,,,
38.466,34.993,,,
38.369,34.955,,,
38.271,34.917,,,
38.173,34.879,,,
38.075,34.841,,,
37.975,34.802,,,
37.874,34.763,,,
37.773,34.723,,,
37.67,34.683,,,
37.565,34.642,,,
37.459,34.6,,,
37.352,34.558,,,
37.244,34.517,,,
37.135,34.475,,,
37.027,34.434,,,
36.92,34.393,,,
36.816,34.353,,,
36.715,34.315,,,
36.618,34.278,,,
36.526,34.242,,,
36.44,34.207,,,
36.362,34.176,,,
36.291,34.147,,,
36.227,34.123,,,
36.171,34.105,,,
36.123,34.095,,,
36.08,34.094,,,
36.044,34.107,,,
36.013,34.134,,,
35.986,34.179,,,
35.963,34.244,,,
35.945,34.33,,,
35.93,34.437,,,
35.919,34.567,,,
35.911,34.718,,,
35.905,34.89,,,
35.901,35.08,,,
35.899,35.287,,,
35.897,35.508,,,
35.895,35.739,,,
35.894,35.979,,,
35.891,36.222,,,
35.887,36.465,,,
35.882,36.706,,,
35.874,36.942,,,
35.863,37.169,,,
35.849,37.386,,,
35.832,37.591,,,
35.812,37.782,,,
35.789,37.958,,,
35.762,38.117,,,
35.732,38.259,,,
35.699,38.385,,,
35.662,38.493,,,
35.623,38.584,,,
35.582,38.66,,,
35.538,38.72,,,
35.492,38.764,,,
35.445,38.795,,,
35.395,38.812,,,
35.345,38.815,,,
35.292,38.807,,,
35.239,38.788,,,
35.183,38.76,,,
35.127,38.723,,,
35.069,38.68,,,
35.011,38.632,,,
34.953,38.579,,,
34.895,38.522,,,
34.838,38.464,,,
34.781,38.404,,,
34.724,38.343,,,
34.666,38.281,,,
34.607,38.219,,,
34.547,38.158,,,
34.486,38.097,,,
34.423,38.036,,,
34.359,37.977,,,
34.294,37.918,,,
34.229,37.861,,,
34.165,37.805,,,
34.1,37.75,,,
34.036,37.696,,,
33.972,37.643,,,
33.91,37.59,,,
33.847,37.54,,,
33.786,37.49,,,
33.726,37.442,,,
33.667,37.395,,,
33.609,37.348,,,
33.554,37.302,,,
33.5,37.256,,,
33.448,37.21,,,
33.397,37.163,,,
33.349,37.115,,,
33.301,37.066,,,
33.254,37.017,,,
33.207,36.968,,,
33.159,36.919,,,
33.111,36.87,,,
33.063,36.822,,,
33.013,36.776,,,
32.963,36.732,,,
32.912,36.691,,,
32.861,36.653,,,
32.809,36.619,,,
32.757,36.589,,,
32.706,36.564,,,
32.655,36.543,,,
32.605,36.525,,,
32.556,36.512,,,
32.508,36.502,,,
32.461,36.496,,,
32.414,36.492,,,
32.368,36.49,,,
32.322,36.49,,,
32.276,36.491,,,
32.231,36.492,,,
32.186,36.494,,,
32.141,36.496,,,
32.097,36.498,,,
32.054,36.5,,,
32.013,36.503,,,
31.975,36.505,,,
31.942,36.507,,,
31.915,36.507,,,
31.897,36.506,,,
31.891,36.502,,,
31.902,36.495,,,
31.932,36.485,,,
31.986,36.472,,,
32.068,36.456,,,
32.179,36.437,,,
32.323,36.415,,,
32.5,36.389,,,
32.71,36.361,,,
32.954,36.331,,,
33.229,36.298,,,
33.532,36.264,,,
33.859,36.227,,,
34.206,36.19,,,
34.568,36.151,,,
34.939,36.111,,,
35.315,36.071,,,
35.69,36.031,,,
36.061,35.991,,,
36.422,35.952,,,
36.769,35.914,,,
37.1,35.877,,,
37.41,35.84,,,
37.697,35.803,,,
37.959,35.765,,,
38.195,35.727,,,
38.405,35.689,,,
38.589,35.65,,,
38.747,35.611,,,
38.879,35.571,,,
38.987,35.531,,,
39.07,35.492,,,
39.131,35.453,,,
39.172,35.415,,,
39.193,35.376,,,
39.198,35.338,,,
39.187,35.3,,,
39.162,35.261,,,
39.126,35.222,,,
39.08,35.183,,,
39.026,35.144,,,
38.965,35.104,,,
38.898,35.065,,,
38.824,35.027,,,
38.745,34.989,,,
38.66,34.952,,,
38.57,34.916,,,
38.475,34.881,,,
38.375,34.848,,,
38.272,34.815,,,
38.165,34.783,,,
38.055,34.751,,,
37.944,34.72,,,
37.832,34.69,,,
37.719,34.659,,,
37.605,34.628,,,
37.492,34.596,,,
37.378,34.564,,,
37.265,34.532,,,
37.153,34.499,,,
37.04,34.465,,,
36.928,34.43,,,
36.817,34.394,,,
36.705,34.359,,,
36.594,34.324,,,
36.484,34.29,,,
36.374,34.257,,,
36.267,34.226,,,
36.161,34.198,,,
36.059,34.173,,,
35.961,34.153,,,
35.868,34.14,,,
35.779,34.135,,,
35.696,34.141,,,
35.619,34.159,,,
35.549,34.192,,,
35.485,34.242,,,
35.428,34.31,,,
35.378,34.399,,,
35.336,34.509,,,
35.302,34.64,,,
35.275,34.791,,,
35.256,34.962,,,
35.244,35.151,,,
35.239,35.355,,,
35.239,35.572,,,
35.245,35.798,,,
35.254,36.03,,,
35.267,36.265,,,
35.282,36.5,,,
35.299,36.731,,,
35.317,36.955,,,
35.334,37.171,,,
35.351,37.375,,,
35.366,37.565,,,
35.378,37.74,,,
35.387,37.899,,,
35.392,38.04,,,
35.393,38.162,,,
35.39,38.265,,,
35.384,38.35,,,
35.373,38.417,,,
35.359,38.466,,,
35.342,38.498,,,
35.32,38.514,,,
35.295,38.516,,,
35.266,38.504,,,
35.234,38.48,,,
35.2,38.445,,,
35.162,38.401,,,
35.121,38.349,,,
35.078,38.291,,,
35.032,38.228,,,
34.985,38.162,,,
34.935,38.093,,,
34.884,38.022,,,
34.833,37.951,,,
34.78,37.88,,,
34.727,37.811,,,
34.674,37.742,,,
34.621,37.676,,,
34.567,37.611,,,
34.512,37.548,,,
34.457,37.488,,,
34.401,37.43,,,
34.346,37.375,,,
34.29,37.321,,,
34.234,37.271,,,
34.178,37.222,,,
34.122,37.174,,,
34.065,37.129,,,
34.009,37.084,,,
33.953,37.04,,,
33.896,36.996,,,
33.839,36.951,,,
33.782,36.905,,,
33.725,36.859,,,
33.667,36.812,,,
33.61,36.764,,,
33.553,36.715,,,
33.495,36.666,,,
33.437,36.617,,,
33.379,36.568,,,
33.321,36.52,,,
33.263,36.472,,,
33.205,36.425,,,
33.148,36.38,,,
33.091,36.338,,,
33.036,36.299,,,
32.982,36.263,,,
32.929,36.231,,,
32.878,36.203,,,
32.828,36.179,,,
32.779,36.16,,,
32.732,36.144,,,
32.686,36.132,,,
32.641,36.123,,,
32.598,36.118,,,
32.555,36.115,,,
32.513,36.114,,,
32.471,36.114,,,
32.43,36.117,,,
32.389,36.12,,,
32.347,36.125,,,
32.304,36.13,,,
32.26,36.137,,,
32.215,36.143,,,
32.17,36.15,,,
32.124,36.156,,,
32.078,36.162,,,
32.032,36.167,,,
31.989,36.17,,,
31.949,36.172,,,
31.914,36.172,,,
31.888,36.169,,,
31.872,36.165,,,
31.872,36.159,,,
31.891,36.151,,,
31.933,36.141,,,
32.003,36.13,,,
32.103,36.117,,,
32.235,36.102,,,
32.402,36.084,,,
32.604,36.065,,,
32.839,36.044,,,
33.106,36.021,,,
33.401,35.995,,,
33.721,35.967,,,
34.063,35.937,,,
34.42,35.905,,,
34.788,35.871,,,
35.162,35.835,,,
35.537,35.797,,,
35.909,35.757,,,
36.272,35.716,,,
36.623,35.674,,,
36.958,35.631,,,
37.275,35.588,,,
37.571,35.545,,,
37.843,35.502,,,
38.091,35.459,,,
38.314,35.417,,,
38.511,35.375,,,
38.682,35.334,,,
38.828,35.292,,,
38.949,35.251,,,
39.047,35.211,,,
39.121,35.172,,,
39.175,35.134,,,
39.21,35.098,,,
39.227,35.062,,,
39.227,35.027,,,
39.212,34.993,,,
39.182,34.959,,,
39.138,34.926,,,
39.083,34.892,,,
39.018,34.858,,,
38.943,34.823,,,
38.86,34.788,,,
38.771,34.752,,,
38.676,34.716,,,
38.577,34.68,,,
38.474,34.642,,,
38.369,34.605,,,
38.262,34.568,,,
38.155,34.531,,,
38.047,34.493,,,
37.938,34.456,,,
37.829,34.418,,,
37.72,34.381,,,
37.61,34.344,,,
37.499,34.307,,,
37.387,34.272,,,
37.272,34.236,,,
37.157,34.202,,,
37.041,34.167,,,
36.923,34.134,,,
36.805,34.102,,,
36.687,34.07,,,
36.568,34.039,,,
36.45,34.01,,,
36.333,33.982,,,
36.219,33.957,,,
36.107,33.933,,,
36,33.913,,,
35.897,33.899,,,
35.801,33.891,,,
35.711,33.892,,,
35.628,33.904,,,
35.553,33.93,,,
35.486,33.973,,,
35.427,34.033,,,
35.376,34.113,,,
35.333,34.214,,,
35.297,34.335,,,
35.269,34.477,,,
35.248,34.638,,,
35.233,34.817,,,
35.225,35.012,,,
35.222,35.221,,,
35.225,35.441,,,
35.233,35.67,,,
35.244,35.904,,,
35.26,36.139,,,
35.278,36.374,,,
35.297,36.605,,,
35.317,36.827,,,
35.336,37.039,,,
35.354,37.239,,,
35.369,37.424,,,
35.383,37.593,,,
35.394,37.746,,,
35.402,37.88,,,
35.408,37.997,,,
35.411,38.095,,,
35.409,38.174,,,
35.405,38.236,,,
35.396,38.281,,,
35.383,38.31,,,
35.366,38.324,,,
35.345,38.324,,,
35.319,38.311,,,
35.29,38.287,,,
35.258,38.253,,,
35.222,38.211,,,
35.183,38.161,,,
35.142,38.104,,,
35.099,38.043,,,
35.054,37.977,,,
35.008,37.908,,,
34.961,37.837,,,
34.912,37.764,,,
34.861,37.69,,,
34.81,37.616,,,
34.758,37.543,,,
34.706,37.471,,,
34.652,37.4,,,
34.597,37.332,,,
34.541,37.266,,,
34.483,37.203,,,
34.424,37.142,,,
34.363,37.084,,,
34.301,37.028,,,
34.238,36.974,,,
34.175,36.92,,,
34.113,36.868,,,
34.051,36.815,,,
33.99,36.763,,,
33.93,36.71,,,
33.872,36.657,,,
33.815,36.603,,,
33.76,36.548,,,
33.706,36.492,,,
33.653,36.434,,,
33.601,36.375,,,
33.551,36.314,,,
33.502,36.253,,,
33.454,36.192,,,
33.408,36.132,,,
33.362,36.073,,,
33.317,36.016,,,
33.273,35.963,,,
33.229,35.912,,,
33.185,35.866,,,
33.141,35.823,,,
33.098,35.785,,,
33.055,35.751,,,
33.011,35.72,,,
32.968,35.694,,,
32.924,35.672,,,
32.88,35.653,,,
32.835,35.639,,,
32.79,35.628,,,
32.745,35.621,,,
32.699,35.617,,,
32.653,35.614,,,
32.608,35.612,,,
32.563,35.611,,,
32.518,35.61,,,
32.473,35.608,,,
32.43,35.606,,,
32.387,35.604,,,
32.347,35.6,,,
32.311,35.596,,,
32.281,35.591,,,
32.261,35.584,,,
32.254,35.576,,,
32.264,35.567,,,
32.296,35.555,,,
32.354,35.541,,,
32.441,35.526,,,
32.561,35.508,,,
32.715,35.489,,,
32.905,35.468,,,
33.129,35.446,,,
33.385,35.422,,,
33.672,35.398,,,
33.985,35.372,,,
34.321,35.345,,,
34.674,35.317,,,
35.04,35.288,,,
35.412,35.258,,,
35.786,35.227,,,
36.156,35.194,,,
36.517,35.16,,,
36.866,35.124,,,
37.197,35.086,,,
37.51,35.048,,,
37.8,35.008,,,
38.068,34.968,,,
38.312,34.928,,,
38.532,34.887,,,
38.727,34.848,,,
38.899,34.809,,,
39.048,34.772,,,
39.175,34.736,,,
39.28,34.702,,,
39.365,34.67,,,
39.431,34.641,,,
39.479,34.614,,,
39.509,34.59,,,
39.523,34.568,,,
39.521,34.548,,,
39.504,34.529,,,
39.473,34.512,,,
39.429,34.495,,,
39.372,34.477,,,
39.305,34.46,,,
39.227,34.441,,,
39.141,34.421,,,
39.048,34.401,,,
38.949,34.378,,,
38.845,34.353,,,
38.738,34.326,,,
38.627,34.297,,,
38.514,34.266,,,
38.399,34.233,,,
38.282,34.199,,,
38.164,34.164,,,
38.044,34.128,,,
37.924,34.09,,,
37.803,34.053,,,
37.681,34.015,,,
37.559,33.977,,,
37.438,33.94,,,
37.317,33.903,,,
37.196,33.867,,,
37.076,33.832,,,
36.957,33.798,,,
36.837,33.766,,,
36.719,33.736,,,
36.601,33.708,,,
36.485,33.682,,,
36.371,33.66,,,
36.26,33.641,,,
36.155,33.626,,,
36.056,33.618,,,
35.964,33.617,,,
35.881,33.626,,,
35.808,33.647,,,
35.743,33.682,,,
35.688,33.732,,,
35.642,33.799,,,
35.604,33.886,,,
35.574,33.991,,,
35.553,34.115,,,
35.539,34.256,,,
35.531,34.414,,,
35.529,34.587,,,
35.532,34.772,,,
35.54,34.966,,,
35.551,35.168,,,
35.564,35.375,,,
35.58,35.583,,,
35.596,35.79,,,
35.612,35.992,,,
35.628,36.188,,,
35.644,36.373,,,
35.658,36.548,,,
35.672,36.71,,,
35.684,36.859,,,
35.694,36.992,,,
35.702,37.11,,,
35.706,37.211,,,
35.708,37.296,,,
35.705,37.365,,,
35.699,37.417,,,
35.689,37.454,,,
35.676,37.476,,,
35.66,37.486,,,
35.641,37.483,,,
35.618,37.469,,,
35.591,37.445,,,
35.56,37.412,,,
35.524,37.371,,,
35.485,37.323,,,
35.443,37.268,,,
35.397,37.208,,,
35.347,37.144,,,
35.294,37.077,,,
35.238,37.008,,,
35.179,36.937,,,
35.118,36.865,,,
35.057,36.792,,,
34.995,36.719,,,
34.933,36.646,,,
34.872,36.574,,,
34.811,36.503,,,
34.75,36.434,,,
34.69,36.366,,,
34.63,36.3,,,
34.571,36.237,,,
34.511,36.175,,,
34.452,36.115,,,
34.393,36.056,,,
34.334,35.999,,,
34.275,35.943,,,
34.216,35.888,,,
34.157,35.833,,,
34.098,35.778,,,
34.039,35.723,,,
33.981,35.668,,,
33.924,35.613,,,
33.869,35.557,,,
33.815,35.501,,,
33.764,35.445,,,
33.715,35.39,,,
33.667,35.337,,,
33.621,35.286,,,
33.576,35.239,,,
33.531,35.196,,,
33.486,35.159,,,
33.441,35.128,,,
33.396,35.103,,,
33.351,35.084,,,
33.305,35.071,,,
33.259,35.064,,,
33.213,35.06,,,
33.165,35.06,,,
33.118,35.063,,,
33.07,35.069,,,
33.021,35.077,,,
32.973,35.086,,,
32.925,35.097,,,
32.876,35.108,,,
32.828,35.12,,,
32.779,35.132,,,
32.732,35.143,,,
32.685,35.155,,,
32.639,35.166,,,
32.596,35.176,,,
32.557,35.185,,,
32.523,35.192,,,
32.499,35.197,,,
32.486,35.2,,,
32.491,35.201,,,
32.518,35.201,,,
32.571,35.198,,,
32.655,35.193,,,
32.773,35.186,,,
32.927,35.176,,,
33.119,35.164,,,
33.349,35.149,,,
33.616,35.13,,,
33.918,35.107,,,
34.25,35.082,,,
34.611,35.053,,,
34.994,35.022,,,
35.395,34.99,,,
35.808,34.955,,,
36.226,34.92,,,
36.646,34.883,,,
37.062,34.844,,,
37.469,34.805,,,
37.863,34.765,,,
38.24,34.724,,,
38.598,34.683,,,
38.932,34.642,,,
39.242,34.601,,,
39.526,34.561,,,
39.782,34.523,,,
40.01,34.485,,,
40.211,34.448,,,
40.384,34.411,,,
40.531,34.375,,,
40.652,34.338,,,
40.749,34.301,,,
40.823,34.263,,,
40.874,34.225,,,
40.905,34.186,,,
40.917,34.146,,,
40.912,34.106,,,
40.89,34.066,,,
40.855,34.026,,,
40.808,33.986,,,
40.751,33.948,,,
40.683,33.91,,,
40.608,33.875,,,
40.525,33.841,,,
40.434,33.809,,,
40.338,33.778,,,
40.236,33.749,,,
40.13,33.72,,,
40.02,33.692,,,
39.907,33.664,,,
39.791,33.636,,,
39.674,33.608,,,
39.556,33.579,,,
39.436,33.55,,,
39.317,33.521,,,
39.198,33.492,,,
39.079,33.464,,,
38.96,33.435,,,
38.842,33.407,,,
38.725,33.379,,,
38.608,33.352,,,
38.493,33.324,,,
38.378,33.297,,,
38.263,33.27,,,
38.15,33.244,,,
38.037,33.218,,,
37.924,33.193,,,
37.813,33.17,,,
37.703,33.148,,,
37.595,33.128,,,
37.491,33.11,,,
37.391,33.096,,,
37.295,33.087,,,
37.205,33.086,,,
37.12,33.094,,,
37.043,33.113,,,
36.972,33.147,,,
36.909,33.197,,,
36.854,33.266,,,
36.807,33.354,,,
36.768,33.463,,,
36.736,33.594,,,
36.713,33.747,,,
36.696,33.919,,,
36.686,34.11,,,
36.681,34.317,,,
36.68,34.538,,,
36.683,34.77,,,
36.689,35.01,,,
36.696,35.255,,,
36.704,35.502,,,
36.712,35.747,,,
36.719,35.988,,,
36.725,36.222,,,
36.728,36.446,,,
36.729,36.658,,,
36.727,36.856,,,
36.723,37.039,,,
36.715,37.204,,,
36.704,37.35,,,
36.69,37.477,,,
36.673,37.584,,,
36.651,37.673,,,
36.627,37.744,,,
36.599,37.798,,,
36.568,37.836,,,
36.535,37.86,,,
36.498,37.871,,,
36.459,37.871,,,
36.418,37.861,,,
36.374,37.842,,,
36.329,37.816,,,
36.282,37.783,,,
36.232,37.743,,,
36.18,37.699,,,
36.125,37.65,,,
36.067,37.597,,,
36.006,37.541,,,
35.942,37.482,,,
35.875,37.421,,,
35.807,37.359,,,
35.736,37.297,,,
35.666,37.235,,,
35.595,37.174,,,
35.524,37.116,,,
35.454,37.059,,,
35.384,37.006,,,
35.315,36.956,,,
35.246,36.91,,,
35.178,36.867,,,
35.111,36.827,,,
35.045,36.788,,,
34.98,36.751,,,
34.917,36.715,,,
34.855,36.677,,,
34.793,36.638,,,
34.733,36.598,,,
34.673,36.555,,,
34.613,36.51,,,
34.554,36.464,,,
34.495,36.415,,,
34.436,36.364,,,
34.377,36.313,,,
34.318,36.261,,,
34.259,36.21,,,
34.2,36.16,,,
34.141,36.112,,,
34.084,36.067,,,
34.026,36.024,,,
33.969,35.985,,,
33.912,35.95,,,
33.856,35.919,,,
33.799,35.892,,,
33.743,35.868,,,
33.687,35.848,,,
33.63,35.831,,,
33.573,35.818,,,
33.514,35.808,,,
33.455,35.801,,,
33.394,35.797,,,
33.332,35.796,,,
33.27,35.798,,,
33.209,35.802,,,
33.15,35.806,,,
33.094,35.812,,,
33.044,35.818,,,
33.003,35.824,,,
32.975,35.829,,,
32.962,35.834,,,
32.971,35.837,,,
33.004,35.839,,,
33.066,35.84,,,
33.161,35.84,,,
33.291,35.838,,,
33.458,35.836,,,
33.662,35.832,,,
33.904,35.827,,,
34.182,35.819,,,
34.494,35.81,,,
34.836,35.798,,,
35.204,35.784,,,
35.594,35.767,,,
36.001,35.746,,,
36.418,35.721,,,
36.842,35.693,,,
37.266,35.661,,,
37.685,35.626,,,
38.093,35.589,,,
38.487,35.55,,,
38.861,35.51,,,
39.213,35.468,,,
39.539,35.426,,,
39.839,35.384,,,
40.11,35.341,,,
40.354,35.297,,,
40.569,35.253,,,
40.756,35.208,,,
40.915,35.162,,,
41.049,35.116,,,
41.156,35.069,,,
41.24,35.022,,,
41.302,34.973,,,
41.343,34.925,,,
41.364,34.876,,,
41.368,34.827,,,
41.355,34.779,,,
41.327,34.732,,,
41.285,34.686,,,
41.231,34.641,,,
41.167,34.596,,,
41.093,34.554,,,
41.01,34.513,,,
40.919,34.474,,,
40.822,34.436,,,
40.718,34.401,,,
40.61,34.367,,,
40.498,34.335,,,
40.382,34.304,,,
40.264,34.274,,,
40.144,34.244,,,
40.022,34.214,,,
39.899,34.184,,,
39.775,34.154,,,
39.65,34.123,,,
39.526,34.091,,,
39.401,34.06,,,
39.276,34.028,,,
39.152,33.997,,,
39.028,33.966,,,
38.905,33.936,,,
38.783,33.907,,,
38.661,33.877,,,
38.539,33.849,,,
38.417,33.82,,,
38.296,33.793,,,
38.176,33.765,,,
38.057,33.739,,,
37.941,33.713,,,
37.828,33.689,,,
37.719,33.667,,,
37.615,33.646,,,
37.517,33.627,,,
37.426,33.608,,,
37.343,33.591,,,
37.267,33.574,,,
37.201,33.557,,,
37.143,33.541,,,
37.093,33.524,,,
37.051,33.507,,,
37.016,33.492,,,
36.988,33.477,,,
36.966,33.466,,,
36.948,33.46,,,
36.934,33.461,,,
36.924,33.472,,,
36.916,33.496,,,
36.909,33.535,,,
36.904,33.592,,,
36.9,33.668,,,
36.897,33.766,,,
36.895,33.885,,,
36.893,34.027,,,
36.89,34.19,,,
36.887,34.373,,,
36.883,34.573,,,
36.877,34.788,,,
36.869,35.014,,,
36.858,35.249,,,
36.843,35.488,,,
36.825,35.728,,,
36.801,35.966,,,
36.771,36.198,,,
36.737,36.423,,,
36.697,36.637,,,
36.652,36.839,,,
36.604,37.027,,,
36.552,37.198,,,
36.497,37.353,,,
36.441,37.491,,,
36.384,37.61,,,
36.326,37.711,,,
36.267,37.794,,,
36.206,37.859,,,
36.145,37.906,,,
36.082,37.937,,,
36.018,37.952,,,
35.952,37.953,,,
35.885,37.941,,,
35.817,37.917,,,
35.747,37.883,,,
35.675,37.839,,,
35.602,37.788,,,
35.528,37.73,,,
35.453,37.668,,,
35.378,37.602,,,
35.305,37.534,,,
35.234,37.464,,,
35.164,37.395,,,
35.096,37.325,,,
35.03,37.257,,,
34.965,37.19,,,
34.899,37.124,,,
34.833,37.06,,,
34.766,36.998,,,
34.699,36.939,,,
34.63,36.88,,,
34.56,36.824,,,
34.49,36.769,,,
34.419,36.715,,,
34.347,36.662,,,
34.275,36.61,,,
34.203,36.559,,,
34.132,36.51,,,
34.061,36.463,,,
33.99,36.417,,,
33.921,36.372,,,
33.854,36.328,,,
33.789,36.284,,,
33.726,36.241,,,
33.664,36.197,,,
33.603,36.153,,,
33.544,36.109,,,
33.485,36.064,,,
33.427,36.018,,,
33.368,35.973,,,
33.308,35.927,,,
33.248,35.883,,,
33.186,35.842,,,
33.123,35.803,,,
33.061,35.767,,,
32.998,35.736,,,
32.937,35.707,,,
32.878,35.681,,,
32.824,35.657,,,
32.776,35.635,,,
32.74,35.616,,,
32.718,35.598,,,
32.714,35.583,,,
32.733,35.57,,,
32.78,35.559,,,
32.857,35.55,,,
32.97,35.543,,,
33.119,35.539,,,
33.306,35.537,,,
33.532,35.538,,,
33.795,35.54,,,
34.093,35.544,,,
34.424,35.549,,,
34.782,35.554,,,
35.164,35.56,,,
35.564,35.565,,,
35.977,35.569,,,
36.397,35.571,,,
36.82,35.572,,,
37.239,35.57,,,
37.65,35.565,,,
38.048,35.558,,,
38.429,35.547,,,
38.791,35.534,,,
39.128,35.517,,,
39.441,35.496,,,
39.726,35.473,,,
39.982,35.447,,,
40.211,35.419,,,
40.411,35.388,,,
40.583,35.355,,,
40.727,35.321,,,
40.846,35.284,,,
40.938,35.246,,,
41.007,35.207,,,
41.053,35.166,,,
41.077,35.125,,,
41.081,35.083,,,
41.068,35.041,,,
41.038,34.999,,,
40.994,34.957,,,
40.937,34.915,,,
40.87,34.873,,,
40.793,34.831,,,
40.707,34.791,,,
40.614,34.751,,,
40.514,34.712,,,
40.408,34.674,,,
40.297,34.637,,,
40.182,34.601,,,
40.064,34.565,,,
39.942,34.53,,,
39.818,34.493,,,
39.691,34.457,,,
39.564,34.419,,,
39.436,34.381,,,
39.307,34.343,,,
39.178,34.304,,,
39.048,34.266,,,
38.918,34.228,,,
38.788,34.191,,,
38.658,34.155,,,
38.528,34.121,,,
38.398,34.088,,,
38.269,34.055,,,
38.141,34.023,,,
38.015,33.992,,,
37.89,33.961,,,
37.769,33.93,,,
37.65,33.899,,,
37.534,33.867,,,
37.422,33.835,,,
37.314,33.802,,,
37.211,33.769,,,
37.112,33.735,,,
37.018,33.701,,,
36.93,33.667,,,
36.849,33.634,,,
36.774,33.601,,,
36.706,33.57,,,
36.646,33.54,,,
36.594,33.511,,,
36.55,33.484,,,
36.513,33.457,,,
36.482,33.431,,,
36.458,33.406,,,
36.441,33.382,,,
36.428,33.358,,,
36.421,33.334,,,
36.417,33.311,,,
36.417,33.289,,,
36.419,33.267,,,
36.422,33.245,,,
36.426,33.224,,,
36.429,33.204,,,
36.431,33.185,,,
36.431,33.168,,,
36.429,33.154,,,
36.424,33.145,,,
36.415,33.142,,,
36.403,33.147,,,
36.388,33.163,,,
36.37,33.192,,,
36.348,33.236,,,
36.322,33.299,,,
36.292,33.382,,,
36.258,33.485,,,
36.22,33.61,,,
36.177,33.755,,,
36.13,33.921,,,
36.078,34.104,,,
36.023,34.303,,,
35.965,34.514,,,
35.904,34.735,,,
35.84,34.962,,,
35.775,35.192,,,
35.708,35.421,,,
35.64,35.646,,,
35.572,35.862,,,
35.504,36.069,,,
35.436,36.262,,,
35.368,36.44,,,
35.3,36.602,,,
35.232,36.747,,,
35.163,36.874,,,
35.093,36.983,,,
35.024,37.073,,,
34.955,37.146,,,
34.886,37.201,,,
34.819,37.241,,,
34.751,37.266,,,
34.684,37.276,,,
34.616,37.273,,,
34.548,37.258,,,
34.479,37.232,,,
34.409,37.198,,,
34.338,37.156,,,
34.266,37.107,,,
34.194,37.052,,,
34.122,36.992,,,
34.05,36.93,,,
33.98,36.864,,,
33.911,36.798,,,
33.844,36.732,,,
33.778,36.666,,,
33.714,36.601,,,
33.65,36.537,,,
33.587,36.474,,,
33.524,36.412,,,
33.461,36.352,,,
33.398,36.293,,,
33.336,36.235,,,
33.274,36.179,,,
33.213,36.124,,,
33.153,36.07,,,
33.093,36.018,,,
33.034,35.968,,,
32.975,35.918,,,
32.916,35.87,,,
32.858,35.823,,,
32.801,35.777,,,
32.743,35.733,,,
32.686,35.689,,,
32.629,35.645,,,
32.573,35.602,,,
32.517,35.559,,,
32.463,35.515,,,
32.411,35.472,,,
32.363,35.429,,,
32.323,35.386,,,
32.293,35.344,,,
32.278,35.303,,,
32.282,35.263,,,
32.311,35.226,,,
32.369,35.191,,,
32.46,35.16,,,
32.587,35.134,,,
32.752,35.111,,,
32.957,35.093,,,
33.202,35.08,,,
33.484,35.071,,,
33.801,35.065,,,
34.149,35.062,,,
34.523,35.062,,,
34.919,35.064,,,
35.331,35.068,,,
35.754,35.073,,,
36.182,35.079,,,
36.609,35.087,,,
37.03,35.094,,,
37.44,35.102,,,
37.836,35.109,,,
38.213,35.116,,,
38.57,35.122,,,
38.902,35.126,,,
39.208,35.129,,,
39.486,35.13,,,
39.734,35.129,,,
39.952,35.125,,,
40.141,35.12,,,
40.299,35.112,,,
40.43,35.103,,,
40.533,35.092,,,
40.61,35.081,,,
40.664,35.069,,,
40.695,35.057,,,
40.706,35.044,,,
40.698,35.03,,,
40.675,35.015,,,
40.636,34.999,,,
40.584,34.98,,,
40.519,34.96,,,
40.445,34.937,,,
40.361,34.911,,,
40.269,34.882,,,
40.17,34.852,,,
40.065,34.819,,,
39.955,34.784,,,
39.84,34.747,,,
39.722,34.709,,,
39.602,34.67,,,
39.479,34.629,,,
39.355,34.588,,,
39.229,34.548,,,
39.102,34.507,,,
38.975,34.467,,,
38.846,34.427,,,
38.717,34.388,,,
38.588,34.35,,,
38.458,34.313,,,
38.328,34.277,,,
38.197,34.242,,,
38.068,34.209,,,
37.939,34.177,,,
37.81,34.146,,,
37.683,34.116,,,
37.557,34.087,,,
37.432,34.059,,,
37.311,34.031,,,
37.192,34.003,,,
37.078,33.975,,,
36.968,33.948,,,
36.864,33.92,,,
36.766,33.894,,,
36.675,33.867,,,
36.591,33.841,,,
36.515,33.815,,,
36.447,33.79,,,
36.388,33.766,,,
36.338,33.742,,,
36.297,33.718,,,
36.263,33.695,,,
36.237,33.671,,,
36.218,33.648,,,
36.204,33.625,,,
36.196,33.603,,,
36.191,33.58,,,
36.189,33.558,,,
36.19,33.535,,,
36.191,33.513,,,
36.193,33.491,,,
36.194,33.469,,,
36.193,33.448,,,
36.192,33.427,,,
36.189,33.406,,,
36.185,33.385,,,
36.179,33.365,,,
36.17,33.345,,,
36.159,33.326,,,
36.146,33.306,,,
36.13,33.288,,,
36.11,33.27,,,
36.088,33.251,,,
36.063,33.234,,,
36.035,33.216,,,
36.004,33.199,,,
35.971,33.183,,,
35.935,33.169,,,
35.897,33.158,,,
35.854,33.151,,,
35.809,33.151,,,
35.76,33.16,,,
35.708,33.18,,,
35.653,33.212,,,
35.596,33.26,,,
35.537,33.325,,,
35.475,33.408,,,
35.412,33.51,,,
35.346,33.631,,,
35.279,33.772,,,
35.211,33.931,,,
35.142,34.107,,,
35.072,34.296,,,
35.002,34.497,,,
34.932,34.706,,,
34.862,34.921,,,
34.791,35.137,,,
34.719,35.352,,,
34.647,35.562,,,
34.576,35.764,,,
34.505,35.956,,,
34.435,36.136,,,
34.365,36.302,,,
34.296,36.452,,,
34.228,36.586,,,
34.16,36.703,,,
34.092,36.802,,,
34.026,36.883,,,
33.96,36.948,,,
33.895,36.996,,,
33.831,37.03,,,
33.767,37.05,,,
33.703,37.058,,,
33.64,37.054,,,
33.578,37.04,,,
33.518,37.017,,,
33.459,36.986,,,
33.401,36.947,,,
33.345,36.903,,,
33.29,36.853,,,
33.235,36.799,,,
33.181,36.741,,,
33.127,36.68,,,
33.073,36.617,,,
33.018,36.552,,,
32.963,36.487,,,
32.907,36.423,,,
32.851,36.358,,,
32.795,36.295,,,
32.738,36.233,,,
32.681,36.172,,,
32.625,36.112,,,
32.568,36.054,,,
32.512,35.997,,,
32.458,35.941,,,
32.405,35.886,,,
32.357,35.832,,,
32.315,35.778,,,
32.284,35.725,,,
32.267,35.673,,,
32.268,35.622,,,
32.291,35.572,,,
32.342,35.522,,,
32.422,35.472,,,
32.536,35.423,,,
32.686,35.374,,,
32.872,35.326,,,
33.095,35.279,,,
33.354,35.233,,,
33.647,35.189,,,
33.97,35.147,,,
34.32,35.109,,,
34.692,35.075,,,
35.08,35.043,,,
35.48,35.015,,,
35.886,34.991,,,
36.292,34.97,,,
36.694,34.954,,,
37.086,34.942,,,
37.465,34.934,,,
37.825,34.93,,,
38.165,34.931,,,
38.482,34.937,,,
38.773,34.946,,,
39.038,34.959,,,
39.274,34.974,,,
39.482,34.992,,,
39.661,35.011,,,
39.812,35.031,,,
39.935,35.052,,,
40.031,35.073,,,
40.102,35.093,,,
40.149,35.113,,,
40.173,35.131,,,
40.177,35.147,,,
40.162,35.161,,,
40.129,35.173,,,
40.082,35.183,,,
40.02,35.19,,,
39.946,35.194,,,
39.861,35.195,,,
39.768,35.193,,,
39.666,35.187,,,
39.558,35.179,,,
39.445,35.167,,,
39.327,35.154,,,
39.206,35.138,,,
39.082,35.121,,,
38.956,35.102,,,
38.829,35.082,,,
38.702,35.06,,,
38.574,35.037,,,
38.446,35.012,,,
38.318,34.985,,,
38.189,34.956,,,
38.06,34.927,,,
37.929,34.896,,,
37.798,34.864,,,
37.666,34.831,,,
37.534,34.797,,,
37.402,34.761,,,
37.272,34.725,,,
37.142,34.687,,,
37.015,34.649,,,
36.89,34.61,,,
36.769,34.57,,,
36.65,34.53,,,
36.537,34.489,,,
36.428,34.449,,,
36.325,34.408,,,
36.229,34.368,,,
36.141,34.328,,,
36.061,34.289,,,
35.99,34.25,,,
35.928,34.212,,,
35.873,34.175,,,
35.828,34.139,,,
35.791,34.103,,,
35.761,34.068,,,
35.739,34.033,,,
35.723,34,,,
35.714,33.967,,,
35.709,33.935,,,
35.709,33.904,,,
35.712,33.874,,,
35.718,33.845,,,
35.725,33.816,,,
35.734,33.787,,,
35.743,33.759,,,
35.752,33.731,,,
35.759,33.703,,,
35.765,33.675,,,
35.769,33.647,,,
35.769,33.619,,,
35.766,33.592,,,
35.76,33.566,,,
35.749,33.54,,,
35.735,33.514,,,
35.716,33.49,,,
35.694,33.467,,,
35.667,33.446,,,
35.635,33.426,,,
35.601,33.407,,,
35.562,33.389,,,
35.521,33.371,,,
35.477,33.354,,,
35.429,33.337,,,
35.379,33.32,,,
35.327,33.302,,,
35.272,33.284,,,
35.216,33.266,,,
35.159,33.248,,,
35.101,33.231,,,
35.042,33.216,,,
34.982,33.202,,,
34.92,33.191,,,
34.857,33.184,,,
34.792,33.183,,,
34.725,33.19,,,
34.656,33.207,,,
34.587,33.237,,,
34.517,33.281,,,
34.446,33.342,,,
34.376,33.421,,,
34.306,33.519,,,
34.237,33.636,,,
34.169,33.772,,,
34.101,33.925,,,
34.035,34.096,,,
33.968,34.281,,,
33.903,34.478,,,
33.837,34.685,,,
33.772,34.898,,,
33.707,35.114,,,
33.641,35.33,,,
33.576,35.543,,,
33.511,35.751,,,
33.447,35.949,,,
33.383,36.138,,,
33.319,36.313,,,
33.257,36.474,,,
33.195,36.62,,,
33.135,36.749,,,
33.076,36.861,,,
33.02,36.956,,,
32.965,37.034,,,
32.913,37.095,,,
32.862,37.14,,,
32.812,37.169,,,
32.762,37.185,,,
32.712,37.189,,,
32.662,37.182,,,
32.611,37.165,,,
32.56,37.139,,,
32.507,37.105,,,
32.454,37.064,,,
32.399,37.018,,,
32.344,36.966,,,
32.288,36.91,,,
32.232,36.85,,,
32.176,36.788,,,
32.121,36.723,,,
32.067,36.656,,,
32.014,36.589,,,
31.963,36.522,,,
31.916,36.456,,,
31.875,36.39,,,
31.841,36.327,,,
31.818,36.267,,,
31.809,36.209,,,
31.818,36.155,,,
31.85,36.104,,,
31.909,36.056,,,
31.999,36.011,,,
32.122,35.968,,,
32.282,35.926,,,
32.48,35.886,,,
32.715,35.846,,,
32.987,35.806,,,
33.294,35.767,,,
33.632,35.728,,,
33.998,35.688,,,
34.387,35.647,,,
34.793,35.606,,,
35.21,35.565,,,
35.634,35.522,,,
36.058,35.48,,,
36.478,35.439,,,
36.888,35.398,,,
37.284,35.36,,,
37.663,35.325,,,
38.02,35.293,,,
38.353,35.264,,,
38.66,35.239,,,
38.939,35.218,,,
39.189,35.2,,,
39.409,35.186,,,
39.599,35.175,,,
39.76,35.168,,,
39.892,35.164,,,
39.997,35.162,,,
40.075,35.164,,,
40.129,35.168,,,
40.159,35.174,,,
40.169,35.183,,,
40.159,35.193,,,
40.132,35.204,,,
40.089,35.215,,,
40.032,35.227,,,
39.963,35.238,,,
39.885,35.249,,,
39.798,35.259,,,
39.704,35.269,,,
39.604,35.278,,,
39.499,35.286,,,
39.39,35.293,,,
39.278,35.299,,,
39.163,35.303,,,
39.046,35.307,,,
38.927,35.309,,,
38.808,35.308,,,
38.688,35.305,,,
38.568,35.299,,,
38.448,35.29,,,
38.328,35.278,,,
38.208,35.264,,,
38.09,35.247,,,
37.972,35.228,,,
37.856,35.206,,,
37.739,35.182,,,
37.623,35.155,,,
37.507,35.125,,,
37.391,35.094,,,
37.274,35.061,,,
37.157,35.028,,,
37.04,34.994,,,
36.925,34.96,,,
36.811,34.926,,,
36.701,34.893,,,
36.595,34.86,,,
36.493,34.828,,,
36.397,34.796,,,
36.308,34.764,,,
36.225,34.732,,,
36.149,34.701,,,
36.08,34.67,,,
36.019,34.64,,,
35.966,34.609,,,
35.92,34.579,,,
35.88,34.549,,,
35.847,34.519,,,
35.817,34.49,,,
35.792,34.461,,,
35.771,34.432,,,
35.752,34.404,,,
35.736,34.375,,,
35.722,34.346,,,
35.711,34.316,,,
35.702,34.286,,,
35.694,34.256,,,
35.688,34.226,,,
35.684,34.197,,,
35.68,34.168,,,
35.676,34.139,,,
35.672,34.112,,,
35.668,34.086,,,
35.662,34.061,,,
35.655,34.036,,,
35.645,34.013,,,
35.632,33.991,,,
35.615,33.968,,,
35.595,33.945,,,
35.57,33.921,,,
35.541,33.896,,,
35.507,33.87,,,
35.47,33.843,,,
35.428,33.815,,,
35.382,33.786,,,
35.333,33.756,,,
35.28,33.726,,,
35.224,33.697,,,
35.167,33.668,,,
35.107,33.638,,,
35.046,33.609,,,
34.983,33.581,,,
34.919,33.552,,,
34.855,33.524,,,
34.79,33.497,,,
34.725,33.47,,,
34.659,33.445,,,
34.593,33.42,,,
34.527,33.397,,,
34.46,33.374,,,
34.393,33.352,,,
34.324,33.33,,,
34.255,33.309,,,
34.186,33.287,,,
34.117,33.267,,,
34.049,33.247,,,
33.981,33.23,,,
33.914,33.215,,,
33.848,33.204,,,
33.783,33.198,,,
33.72,33.2,,,
33.659,33.211,,,
33.599,33.234,,,
33.539,33.27,,,
33.48,33.321,,,
33.422,33.389,,,
33.363,33.476,,,
33.305,33.583,,,
33.247,33.71,,,
33.189,33.856,,,
33.131,34.022,,,
33.073,34.205,,,
33.015,34.402,,,
32.957,34.613,,,
32.899,34.833,,,
32.843,35.059,,,
32.787,35.289,,,
32.733,35.519,,,
32.679,35.747,,,
32.625,35.969,,,
32.573,36.184,,,
32.52,36.389,,,
32.468,36.582,,,
32.416,36.763,,,
32.363,36.928,,,
32.311,37.079,,,
32.258,37.212,,,
32.205,37.33,,,
32.152,37.43,,,
32.098,37.514,,,
32.045,37.581,,,
31.991,37.631,,,
31.938,37.665,,,
31.885,37.685,,,
31.833,37.69,,,
31.782,37.682,,,
31.734,37.662,,,
31.69,37.633,,,
31.649,37.594,,,
31.615,37.549,,,
31.588,37.498,,,
31.571,37.442,,,
31.568,37.383,,,
31.581,37.322,,,
31.615,37.259,,,
31.675,37.195,,,
31.763,37.131,,,
31.884,37.067,,,
32.039,37.004,,,
32.23,36.942,,,
32.457,36.882,,,
32.72,36.824,,,
33.016,36.768,,,
33.342,36.713,,,
33.693,36.66,,,
34.066,36.609,,,
34.455,36.561,,,
34.855,36.515,,,
35.26,36.471,,,
35.666,36.429,,,
36.066,36.388,,,
36.457,36.349,,,
36.833,36.312,,,
37.191,36.275,,,
37.529,36.238,,,
37.843,36.201,,,
38.13,36.164,,,
38.391,36.127,,,
38.622,36.089,,,
38.825,36.051,,,
38.999,36.012,,,
39.145,35.973,,,
39.263,35.933,,,
39.356,35.893,,,
39.424,35.855,,,
39.469,35.818,,,
39.492,35.784,,,
39.496,35.753,,,
39.481,35.725,,,
39.45,35.701,,,
39.404,35.68,,,
39.346,35.664,,,
39.277,35.651,,,
39.198,35.642,,,
39.112,35.637,,,
39.018,35.635,,,
38.92,35.637,,,
38.816,35.64,,,
38.71,35.645,,,
38.602,35.652,,,
38.491,35.659,,,
38.38,35.668,,,
38.268,35.677,,,
38.156,35.686,,,
38.044,35.695,,,
37.932,35.704,,,
37.821,35.712,,,
37.711,35.719,,,
37.601,35.725,,,
37.493,35.731,,,
37.386,35.735,,,
37.28,35.738,,,
37.175,35.739,,,
37.071,35.738,,,
36.968,35.735,,,
36.866,35.73,,,
36.765,35.722,,,
36.665,35.712,,,
36.567,35.699,,,
36.47,35.683,,,
36.375,35.665,,,
36.281,35.645,,,
36.189,35.622,,,
36.099,35.596,,,
36.012,35.569,,,
35.928,35.539,,,
35.848,35.506,,,
35.773,35.472,,,
35.704,35.436,,,
35.639,35.4,,,
35.58,35.362,,,
35.527,35.324,,,
35.48,35.286,,,
35.439,35.248,,,
35.404,35.209,,,
35.376,35.171,,,
35.354,35.134,,,
35.337,35.098,,,
35.325,35.063,,,
35.317,35.028,,,
35.312,34.995,,,
35.31,34.962,,,
35.31,34.929,,,
35.311,34.896,,,
35.312,34.862,,,
35.313,34.827,,,
35.313,34.792,,,
35.311,34.755,,,
35.308,34.718,,,
35.302,34.681,,,
35.294,34.644,,,
35.283,34.606,,,
35.268,34.57,,,
35.251,34.534,,,
35.231,34.5,,,
35.207,34.467,,,
35.18,34.436,,,
35.15,34.406,,,
35.118,34.377,,,
35.082,34.349,,,
35.044,34.322,,,
35.004,34.296,,,
34.96,34.27,,,
34.914,34.245,,,
34.865,34.22,,,
34.813,34.195,,,
34.759,34.17,,,
34.703,34.146,,,
34.644,34.122,,,
34.583,34.098,,,
34.52,34.074,,,
34.456,34.051,,,
34.391,34.027,,,
34.325,34.004,,,
34.259,33.981,,,
34.192,33.958,,,
34.124,33.935,,,
34.056,33.913,,,
33.988,33.891,,,
33.92,33.87,,,
33.851,33.849,,,
33.784,33.828,,,
33.717,33.809,,,
33.651,33.789,,,
33.587,33.769,,,
33.525,33.749,,,
33.463,33.729,,,
33.403,33.708,,,
33.342,33.686,,,
33.283,33.663,,,
33.224,33.64,,,
33.166,33.617,,,
33.108,33.594,,,
33.05,33.572,,,
32.993,33.552,,,
32.936,33.536,,,
32.88,33.525,,,
32.824,33.522,,,
32.768,33.528,,,
32.713,33.546,,,
32.657,33.579,,,
32.602,33.629,,,
32.547,33.699,,,
32.493,33.789,,,
32.44,33.901,,,
32.388,34.034,,,
32.338,34.188,,,
32.289,34.36,,,
32.241,34.55,,,
32.195,34.754,,,
32.149,34.969,,,
32.104,35.194,,,
32.059,35.424,,,
32.015,35.656,,,
31.97,35.887,,,
31.925,36.112,,,
31.881,36.33,,,
31.836,36.537,,,
31.791,36.731,,,
31.747,36.911,,,
31.703,37.075,,,
31.659,37.224,,,
31.615,37.356,,,
31.572,37.471,,,
31.529,37.57,,,
31.486,37.652,,,
31.444,37.719,,,
31.405,37.771,,,
31.368,37.808,,,
31.335,37.832,,,
31.308,37.843,,,
31.29,37.842,,,
31.283,37.829,,,
31.292,37.806,,,
31.32,37.774,,,
31.372,37.733,,,
31.45,37.687,,,
31.557,37.634,,,
31.697,37.577,,,
31.869,37.517,,,
32.075,37.453,,,
32.314,37.388,,,
32.583,37.322,,,
32.879,37.256,,,
33.2,37.189,,,
33.541,37.124,,,
33.897,37.059,,,
34.264,36.995,,,
34.635,36.933,,,
35.007,36.872,,,
35.375,36.812,,,
35.734,36.756,,,
36.08,36.702,,,
36.41,36.652,,,
36.72,36.604,,,
37.008,36.558,,,
37.272,36.516,,,
37.509,36.475,,,
37.719,36.437,,,
37.902,36.401,,,
38.056,36.365,,,
38.183,36.33,,,
38.282,36.295,,,
38.355,36.259,,,
38.404,36.221,,,
38.429,36.183,,,
38.432,36.143,,,
38.417,36.101,,,
38.385,36.059,,,
38.339,36.017,,,
38.28,35.976,,,
38.211,35.935,,,
38.133,35.897,,,
38.047,35.861,,,
37.956,35.829,,,
37.859,35.8,,,
37.758,35.775,,,
37.655,35.753,,,
37.55,35.736,,,
37.444,35.723,,,
37.339,35.715,,,
37.234,35.711,,,
37.132,35.711,,,
37.031,35.716,,,
36.933,35.724,,,
36.838,35.736,,,
36.746,35.75,,,
36.658,35.765,,,
36.573,35.782,,,
36.492,35.8,,,
36.412,35.817,,,
36.335,35.833,,,
36.259,35.847,,,
36.182,35.86,,,
36.105,35.872,,,
36.028,35.882,,,
35.95,35.89,,,
35.871,35.896,,,
35.793,35.901,,,
35.715,35.904,,,
35.638,35.905,,,
35.564,35.903,,,
35.491,35.899,,,
35.422,35.892,,,
35.356,35.882,,,
35.294,35.869,,,
35.236,35.854,,,
35.183,35.836,,,
35.134,35.817,,,
35.092,35.795,,,
35.055,35.772,,,
35.024,35.747,,,
34.999,35.721,,,
34.978,35.693,,,
34.961,35.664,,,
34.947,35.633,,,
34.935,35.601,,,
34.925,35.568,,,
34.916,35.534,,,
34.909,35.498,,,
34.902,35.462,,,
34.897,35.425,,,
34.891,35.386,,,
34.886,35.347,,,
34.881,35.308,,,
34.875,35.268,,,
34.869,35.227,,,
34.862,35.184,,,
34.854,35.141,,,
34.845,35.096,,,
34.835,35.05,,,
34.823,35.005,,,
34.809,34.959,,,
34.794,34.914,,,
34.777,34.87,,,
34.756,34.828,,,
34.733,34.787,,,
34.707,34.749,,,
34.676,34.712,,,
34.642,34.678,,,
34.604,34.645,,,
34.561,34.614,,,
34.515,34.585,,,
34.465,34.557,,,
34.412,34.529,,,
34.356,34.503,,,
34.298,34.477,,,
34.239,34.452,,,
34.179,34.427,,,
34.119,34.403,,,
34.059,34.378,,,
34.001,34.354,,,
33.943,34.329,,,
33.886,34.304,,,
33.829,34.279,,,
33.772,34.253,,,
33.716,34.228,,,
33.659,34.201,,,
33.603,34.175,,,
33.546,34.148,,,
33.49,34.121,,,
33.433,34.094,,,
33.376,34.068,,,
33.318,34.043,,,
33.26,34.018,,,
33.202,33.994,,,
33.144,33.97,,,
33.086,33.946,,,
33.029,33.922,,,
32.973,33.898,,,
32.917,33.873,,,
32.862,33.849,,,
32.808,33.825,,,
32.755,33.8,,,
32.703,33.777,,,
32.651,33.755,,,
32.601,33.735,,,
32.55,33.718,,,
32.5,33.704,,,
32.451,33.696,,,
32.403,33.694,,,
32.355,33.702,,,
32.309,33.721,,,
32.262,33.754,,,
32.216,33.803,,,
32.168,33.87,,,
32.12,33.956,,,
32.071,34.063,,,
32.022,34.191,,,
31.971,34.339,,,
31.92,34.508,,,
31.869,34.695,,,
31.817,34.899,,,
31.766,35.116,,,
31.714,35.343,,,
31.663,35.578,,,
31.612,35.816,,,
31.562,36.054,,,
31.513,36.289,,,
31.466,36.518,,,
31.421,36.738,,,
31.377,36.946,,,
31.335,37.138,,,
31.295,37.314,,,
31.257,37.472,,,
31.219,37.612,,,
31.184,37.732,,,
31.148,37.834,,,
31.114,37.916,,,
31.079,37.981,,,
31.045,38.028,,,
31.01,38.058,,,
30.976,38.073,,,
30.943,38.075,,,
30.912,38.064,,,
30.884,38.042,,,
30.861,38.011,,,
30.845,37.972,,,
30.839,37.925,,,
30.845,37.873,,,
30.867,37.815,,,
30.908,37.754,,,
30.971,37.688,,,
31.06,37.62,,,
31.176,37.55,,,
31.32,37.478,,,
31.494,37.404,,,
31.696,37.33,,,
31.927,37.257,,,
32.183,37.183,,,
32.463,37.111,,,
32.763,37.041,,,
33.079,36.971,,,
33.407,36.904,,,
33.743,36.837,,,
34.082,36.773,,,
34.419,36.71,,,
34.751,36.648,,,
35.073,36.587,,,
35.381,36.526,,,
35.673,36.466,,,
35.946,36.406,,,
36.196,36.348,,,
36.422,36.29,,,
36.624,36.232,,,
36.8,36.176,,,
36.951,36.121,,,
37.075,36.068,,,
37.175,36.016,,,
37.252,35.965,,,
37.306,35.918,,,
37.34,35.873,,,
37.355,35.832,,,
37.352,35.795,,,
37.335,35.762,,,
37.303,35.733,,,
37.259,35.708,,,
37.204,35.687,,,
37.141,35.671,,,
37.069,35.657,,,
36.992,35.646,,,
36.909,35.638,,,
36.822,35.633,,,
36.732,35.63,,,
36.64,35.63,,,
36.545,35.632,,,
36.449,35.636,,,
36.352,35.643,,,
36.254,35.651,,,
36.157,35.661,,,
36.059,35.673,,,
35.963,35.686,,,
35.867,35.7,,,
35.773,35.714,,,
35.68,35.729,,,
35.587,35.743,,,
35.496,35.756,,,
35.406,35.768,,,
35.316,35.778,,,
35.227,35.788,,,
35.138,35.795,,,
35.049,35.801,,,
34.96,35.806,,,
34.872,35.809,,,
34.786,35.809,,,
34.7,35.807,,,
34.616,35.802,,,
34.533,35.793,,,
34.452,35.781,,,
34.375,35.765,,,
34.301,35.746,,,
34.232,35.724,,,
34.168,35.698,,,
34.111,35.67,,,
34.059,35.638,,,
34.015,35.603,,,
33.978,35.566,,,
33.947,35.527,,,
33.924,35.486,,,
33.907,35.444,,,
33.897,35.401,,,
33.892,35.357,,,
33.892,35.314,,,
33.895,35.27,,,
33.902,35.226,,,
33.912,35.183,,,
33.923,35.14,,,
33.935,35.097,,,
33.949,35.055,,,
33.962,35.013,,,
33.976,34.972,,,
33.99,34.93,,,
34.003,34.889,,,
34.016,34.847,,,
34.029,34.806,,,
34.041,34.765,,,
34.052,34.724,,,
34.061,34.683,,,
34.068,34.644,,,
34.072,34.604,,,
34.073,34.565,,,
34.07,34.526,,,
34.063,34.488,,,
34.052,34.45,,,
34.036,34.411,,,
34.016,34.374,,,
33.993,34.336,,,
33.965,34.298,,,
33.935,34.261,,,
33.902,34.223,,,
33.866,34.186,,,
33.828,34.149,,,
33.788,34.113,,,
33.747,34.078,,,
33.704,34.043,,,
33.661,34.011,,,
33.616,33.979,,,
33.571,33.95,,,
33.526,33.922,,,
33.48,33.895,,,
33.433,33.87,,,
33.387,33.846,,,
33.34,33.823,,,
33.294,33.801,,,
33.248,33.778,,,
33.202,33.756,,,
33.157,33.733,,,
33.112,33.711,,,
33.066,33.688,,,
33.02,33.666,,,
32.973,33.643,,,
32.925,33.621,,,
32.878,33.599,,,
32.829,33.579,,,
32.781,33.561,,,
32.733,33.545,,,
32.684,33.534,,,
32.636,33.528,,,
32.587,33.53,,,
32.538,33.541,,,
32.489,33.564,,,
32.44,33.6,,,
32.392,33.652,,,
32.344,33.722,,,
32.297,33.811,,,
32.25,33.922,,,
32.204,34.054,,,
32.158,34.208,,,
32.114,34.382,,,
32.07,34.577,,,
32.028,34.788,,,
31.986,35.015,,,
31.945,35.254,,,
31.905,35.502,,,
31.865,35.755,,,
31.826,36.01,,,
31.788,36.262,,,
31.751,36.509,,,
31.715,36.747,,,
31.68,36.973,,,
31.646,37.185,,,
31.613,37.381,,,
31.581,37.561,,,
31.549,37.722,,,
31.516,37.864,,,
31.484,37.987,,,
31.451,38.091,,,
31.418,38.177,,,
31.384,38.244,,,
31.35,38.295,,,
31.317,38.329,,,
31.284,38.349,,,
31.252,38.355,,,
31.224,38.349,,,
31.2,38.331,,,
31.182,38.304,,,
31.174,38.268,,,
31.177,38.225,,,
31.195,38.174,,,
31.232,38.118,,,
31.29,38.057,,,
31.374,37.993,,,
31.484,37.926,,,
31.623,37.858,,,
31.792,37.789,,,
31.988,37.721,,,
32.211,37.652,,,
32.458,37.585,,,
32.727,37.518,,,
33.012,37.453,,,
33.309,37.389,,,
33.615,37.327,,,
33.925,37.266,,,
34.232,37.207,,,
34.533,37.15,,,
34.824,37.094,,,
35.099,37.04,,,
35.357,36.988,,,
35.595,36.937,,,
35.811,36.888,,,
36.004,36.84,,,
36.174,36.791,,,
36.321,36.743,,,
36.445,36.694,,,
36.547,36.644,,,
36.628,36.593,,,
36.689,36.542,,,
36.731,36.49,,,
36.755,36.438,,,
36.763,36.386,,,
36.756,36.336,,,
36.736,36.287,,,
36.704,36.24,,,
36.661,36.195,,,
36.608,36.153,,,
36.547,36.114,,,
36.479,36.08,,,
36.405,36.049,,,
36.325,36.022,,,
36.241,36,,,
36.155,35.982,,,
36.066,35.967,,,
35.975,35.955,,,
35.884,35.946,,,
35.791,35.94,,,
35.698,35.937,,,
35.604,35.936,,,
35.511,35.937,,,
35.417,35.94,,,
35.324,35.946,,,
35.231,35.952,,,
35.139,35.96,,,
35.048,35.969,,,
34.958,35.979,,,
34.869,35.988,,,
34.782,35.996,,,
34.695,36.002,,,
34.61,36.006,,,
34.525,36.008,,,
34.442,36.007,,,
34.36,36.005,,,
34.28,36.001,,,
34.202,35.996,,,
34.127,35.989,,,
34.054,35.981,,,
33.985,35.97,,,
33.919,35.958,,,
33.859,35.943,,,
33.803,35.924,,,
33.753,35.903,,,
33.708,35.878,,,
33.67,35.85,,,
33.639,35.82,,,
33.614,35.788,,,
33.597,35.756,,,
33.587,35.722,,,
33.584,35.687,,,
33.588,35.652,,,
33.599,35.616,,,
33.614,35.578,,,
33.633,35.539,,,
33.654,35.498,,,
33.677,35.455,,,
33.7,35.41,,,
33.724,35.364,,,
33.748,35.315,,,
33.772,35.266,,,
33.796,35.215,,,
33.819,35.164,,,
33.841,35.114,,,
33.862,35.066,,,
33.88,35.018,,,
33.897,34.973,,,
33.91,34.928,,,
33.92,34.885,,,
33.926,34.842,,,
33.928,34.801,,,
33.926,34.76,,,
33.919,34.72,,,
33.908,34.68,,,
33.892,34.641,,,
33.873,34.601,,,
33.851,34.562,,,
33.827,34.524,,,
33.8,34.485,,,
33.77,34.448,,,
33.738,34.411,,,
33.705,34.375,,,
33.67,34.339,,,
33.634,34.304,,,
33.597,34.268,,,
33.559,34.233,,,
33.52,34.199,,,
33.48,34.164,,,
33.439,34.13,,,
33.398,34.096,,,
33.356,34.062,,,
33.314,34.028,,,
33.272,33.995,,,
33.23,33.962,,,
33.188,33.93,,,
33.146,33.899,,,
33.105,33.869,,,
33.064,33.84,,,
33.023,33.812,,,
32.983,33.785,,,
32.942,33.758,,,
32.903,33.73,,,
32.863,33.703,,,
32.823,33.675,,,
32.783,33.646,,,
32.744,33.618,,,
32.705,33.589,,,
32.666,33.56,,,
32.628,33.531,,,
32.59,33.502,,,
32.553,33.474,,,
32.516,33.448,,,
32.479,33.423,,,
32.442,33.399,,,
32.405,33.378,,,
32.369,33.361,,,
32.332,33.347,,,
32.295,33.34,,,
32.258,33.341,,,
32.221,33.353,,,
32.184,33.378,,,
32.148,33.419,,,
32.112,33.478,,,
32.078,33.557,,,
32.044,33.657,,,
32.011,33.78,,,
31.98,33.925,,,
31.949,34.092,,,
31.92,34.28,,,
31.891,34.487,,,
31.862,34.711,,,
31.833,34.948,,,
31.804,35.197,,,
31.773,35.453,,,
31.742,35.713,,,
31.71,35.973,,,
31.677,36.23,,,
31.643,36.482,,,
31.611,36.726,,,
31.579,36.958,,,
31.55,37.178,,,
31.525,37.383,,,
31.505,37.571,,,
31.493,37.741,,,
31.492,37.892,,,
31.505,38.023,,,
31.535,38.133,,,
31.586,38.224,,,
31.659,38.294,,,
31.759,38.346,,,
31.886,38.38,,,
32.041,38.398,,,
32.226,38.402,,,
32.439,38.392,,,
32.677,38.371,,,
32.94,38.341,,,
33.222,38.302,,,
33.521,38.255,,,
33.832,38.202,,,
34.15,38.144,,,
34.471,38.081,,,
34.789,38.015,,,
35.101,37.945,,,
35.403,37.873,,,
35.689,37.8,,,
35.958,37.727,,,
36.206,37.654,,,
36.432,37.582,,,
36.635,37.512,,,
36.813,37.444,,,
36.968,37.379,,,
37.099,37.316,,,
37.208,37.255,,,
37.295,37.196,,,
37.361,37.138,,,
37.409,37.081,,,
37.439,37.025,,,
37.453,36.969,,,
37.452,36.914,,,
37.439,36.86,,,
37.414,36.805,,,
37.379,36.751,,,
37.336,36.697,,,
37.285,36.642,,,
37.228,36.587,,,
37.165,36.532,,,
37.097,36.477,,,
37.024,36.421,,,
36.948,36.366,,,
36.869,36.31,,,
36.788,36.255,,,
36.704,36.201,,,
36.619,36.149,,,
36.533,36.099,,,
36.446,36.051,,,
36.36,36.007,,,
36.274,35.967,,,
36.189,35.931,,,
36.106,35.899,,,
36.024,35.871,,,
35.944,35.847,,,
35.866,35.827,,,
35.79,35.811,,,
35.715,35.799,,,
35.641,35.79,,,
35.569,35.785,,,
35.498,35.783,,,
35.427,35.783,,,
35.357,35.784,,,
35.287,35.788,,,
35.217,35.794,,,
35.148,35.802,,,
35.079,35.811,,,
35.012,35.821,,,
34.946,35.832,,,
34.883,35.842,,,
34.822,35.852,,,
34.765,35.861,,,
34.712,35.868,,,
34.663,35.873,,,
34.618,35.876,,,
34.579,35.877,,,
34.544,35.874,,,
34.515,35.869,,,
34.492,35.861,,,
34.475,35.849,,,
34.463,35.835,,,
34.456,35.818,,,
34.454,35.799,,,
34.456,35.776,,,
34.461,35.75,,,
34.469,35.722,,,
34.48,35.691,,,
34.493,35.659,,,
34.507,35.625,,,
34.521,35.591,,,
34.535,35.555,,,
34.548,35.518,,,
34.561,35.479,,,
34.573,35.44,,,
34.584,35.4,,,
34.594,35.359,,,
34.602,35.317,,,
34.608,35.274,,,
34.613,35.23,,,
34.614,35.185,,,
34.614,35.14,,,
34.61,35.094,,,
34.603,35.049,,,
34.592,35.005,,,
34.578,34.961,,,
34.561,34.918,,,
34.539,34.877,,,
34.514,34.836,,,
34.487,34.796,,,
34.457,34.758,,,
34.425,34.721,,,
34.393,34.686,,,
34.359,34.651,,,
34.324,34.617,,,
34.288,34.583,,,
34.251,34.55,,,
34.214,34.518,,,
34.175,34.486,,,
34.135,34.454,,,
34.094,34.422,,,
34.051,34.39,,,
34.007,34.359,,,
33.961,34.327,,,
33.914,34.295,,,
33.867,34.262,,,
33.819,34.229,,,
33.771,34.196,,,
33.724,34.163,,,
33.677,34.129,,,
33.63,34.095,,,
33.584,34.061,,,
33.538,34.027,,,
33.492,33.993,,,
33.447,33.96,,,
33.402,33.928,,,
33.358,33.897,,,
33.314,33.867,,,
33.271,33.837,,,
33.23,33.808,,,
33.189,33.78,,,
33.15,33.753,,,
33.113,33.727,,,
33.076,33.701,,,
33.039,33.677,,,
33.003,33.655,,,
32.966,33.634,,,
32.929,33.613,,,
32.892,33.594,,,
32.855,33.575,,,
32.818,33.557,,,
32.781,33.539,,,
32.744,33.52,,,
32.708,33.501,,,
32.672,33.482,,,
32.637,33.462,,,
32.602,33.443,,,
32.569,33.426,,,
32.536,33.412,,,
32.504,33.404,,,
32.473,33.403,,,
32.442,33.413,,,
32.412,33.437,,,
32.382,33.478,,,
32.352,33.537,,,
32.323,33.617,,,
32.294,33.719,,,
32.264,33.844,,,
32.234,33.992,,,
32.202,34.163,,,
32.17,34.355,,,
32.136,34.565,,,
32.102,34.792,,,
32.067,35.033,,,
32.032,35.284,,,
31.999,35.543,,,
31.969,35.804,,,
31.943,36.065,,,
31.925,36.323,,,
31.917,36.574,,,
31.921,36.815,,,
31.942,37.045,,,
31.983,37.261,,,
32.046,37.462,,,
32.135,37.645,,,
32.251,37.811,,,
32.395,37.958,,,
32.567,38.086,,,
32.767,38.194,,,
32.993,38.284,,,
33.242,38.354,,,
33.512,38.406,,,
33.798,38.44,,,
34.097,38.459,,,
34.404,38.462,,,
34.716,38.451,,,
35.029,38.428,,,
35.338,38.394,,,
35.641,38.35,,,
35.932,38.299,,,
36.21,38.242,,,
36.47,38.18,,,
36.711,38.113,,,
36.93,38.044,,,
37.126,37.972,,,
37.299,37.898,,,
37.447,37.823,,,
37.571,37.748,,,
37.672,37.674,,,
37.752,37.601,,,
37.81,37.529,,,
37.849,37.458,,,
37.869,37.389,,,
37.873,37.322,,,
37.862,37.256,,,
37.837,37.192,,,
37.799,37.128,,,
37.751,37.066,,,
37.693,37.004,,,
37.626,36.943,,,
37.552,36.882,,,
37.473,36.821,,,
37.39,36.76,,,
37.304,36.7,,,
37.218,36.639,,,
37.13,36.579,,,
37.043,36.518,,,
36.956,36.458,,,
36.87,36.397,,,
36.784,36.337,,,
36.7,36.278,,,
36.617,36.22,,,
36.535,36.164,,,
36.454,36.111,,,
36.374,36.061,,,
36.296,36.015,,,
36.219,35.972,,,
36.142,35.933,,,
36.067,35.897,,,
35.994,35.866,,,
35.921,35.84,,,
35.848,35.818,,,
35.777,35.802,,,
35.707,35.79,,,
35.636,35.783,,,
35.566,35.779,,,
35.497,35.779,,,
35.428,35.78,,,
35.359,35.784,,,
35.292,35.789,,,
35.226,35.795,,,
35.163,35.801,,,
35.102,35.807,,,
35.045,35.813,,,
34.991,35.819,,,
34.941,35.823,,,
34.895,35.827,,,
34.855,35.83,,,
34.819,35.832,,,
34.788,35.832,,,
34.761,35.831,,,
34.739,35.829,,,
34.722,35.825,,,
34.709,35.819,,,
34.7,35.812,,,
34.695,35.803,,,
34.693,35.791,,,
34.693,35.776,,,
34.696,35.758,,,
34.701,35.735,,,
34.707,35.709,,,
34.715,35.678,,,
34.724,35.644,,,
34.735,35.606,,,
34.747,35.565,,,
34.76,35.522,,,
34.772,35.478,,,
34.783,35.432,,,
34.792,35.386,,,
34.799,35.34,,,
34.802,35.295,,,
34.803,35.249,,,
34.801,35.204,,,
34.794,35.16,,,
34.784,35.116,,,
34.77,35.073,,,
34.752,35.03,,,
34.73,34.989,,,
34.705,34.947,,,
34.676,34.906,,,
34.646,34.865,,,
34.613,34.824,,,
34.579,34.783,,,
34.542,34.743,,,
34.504,34.702,,,
34.465,34.662,,,
34.425,34.622,,,
34.383,34.582,,,
34.341,34.542,,,
34.298,34.503,,,
34.255,34.463,,,
34.211,34.424,,,
34.168,34.384,,,
34.124,34.345,,,
34.08,34.305,,,
34.036,34.265,,,
33.991,34.226,,,
33.947,34.187,,,
33.903,34.15,,,
33.858,34.113,,,
33.813,34.078,,,
33.768,34.044,,,
33.723,34.012,,,
33.677,33.981,,,
33.631,33.952,,,
33.584,33.924,,,
33.538,33.899,,,
33.491,33.875,,,
33.445,33.853,,,
33.399,33.832,,,
33.353,33.811,,,
33.308,33.79,,,
33.263,33.769,,,
33.219,33.747,,,
33.175,33.724,,,
33.133,33.7,,,
33.091,33.676,,,
33.051,33.653,,,
33.011,33.629,,,
32.972,33.606,,,
32.934,33.584,,,
32.897,33.563,,,
32.859,33.542,,,
32.822,33.523,,,
32.785,33.504,,,
32.749,33.484,,,
32.712,33.465,,,
32.676,33.444,,,
32.64,33.424,,,
32.604,33.402,,,
32.568,33.382,,,
32.532,33.361,,,
32.496,33.342,,,
32.46,33.325,,,
32.425,33.312,,,
32.39,33.303,,,
32.357,33.302,,,
32.323,33.312,,,
32.291,33.334,,,
32.259,33.373,,,
32.227,33.43,,,
32.196,33.507,,,
32.166,33.607,,,
32.137,33.73,,,
32.109,33.877,,,
32.083,34.046,,,
32.061,34.238,,,
32.043,34.45,,,
32.032,34.68,,,
32.03,34.924,,,
32.038,35.181,,,
32.06,35.445,,,
32.1,35.713,,,
32.159,35.982,,,
32.239,36.247,,,
32.344,36.505,,,
32.475,36.753,,,
32.631,36.989,,,
32.812,37.21,,,
33.017,37.415,,,
33.244,37.602,,,
33.491,37.771,,,
33.755,37.922,,,
34.032,38.053,,,
34.318,38.165,,,
34.609,38.258,,,
34.9,38.332,,,
35.187,38.388,,,
35.467,38.427,,,
35.735,38.45,,,
35.989,38.458,,,
36.225,38.452,,,
36.443,38.432,,,
36.64,38.4,,,
36.816,38.359,,,
36.97,38.309,,,
37.103,38.252,,,
37.213,38.189,,,
37.301,38.123,,,
37.369,38.053,,,
37.417,37.981,,,
37.447,37.907,,,
37.46,37.833,,,
37.458,37.758,,,
37.441,37.683,,,
37.411,37.608,,,
37.37,37.533,,,
37.318,37.458,,,
37.258,37.384,,,
37.189,37.31,,,
37.114,37.236,,,
37.034,37.163,,,
36.949,37.091,,,
36.861,37.02,,,
36.771,36.95,,,
36.678,36.882,,,
36.585,36.814,,,
36.492,36.748,,,
36.398,36.681,,,
36.306,36.615,,,
36.214,36.55,,,
36.123,36.484,,,
36.034,36.419,,,
35.947,36.355,,,
35.862,36.29,,,
35.779,36.227,,,
35.698,36.165,,,
35.618,36.105,,,
35.539,36.047,,,
35.462,35.991,,,
35.385,35.938,,,
35.308,35.889,,,
35.232,35.843,,,
35.156,35.802,,,
35.08,35.765,,,
35.005,35.733,,,
34.931,35.705,,,
34.859,35.683,,,
34.788,35.667,,,
34.72,35.656,,,
34.654,35.651,,,
34.591,35.651,,,
34.532,35.656,,,
34.476,35.665,,,
34.425,35.677,,,
34.378,35.692,,,
34.337,35.709,,,
34.302,35.728,,,
34.272,35.749,,,
34.248,35.77,,,
34.229,35.792,,,
34.216,35.812,,,
34.207,35.832,,,
34.204,35.85,,,
34.204,35.866,,,
34.209,35.879,,,
34.219,35.889,,,
34.231,35.896,,,
34.247,35.899,,,
34.265,35.898,,,
34.285,35.893,,,
34.306,35.883,,,
34.327,35.869,,,
34.349,35.851,,,
34.371,35.829,,,
34.392,35.803,,,
34.412,35.774,,,
34.43,35.743,,,
34.446,35.71,,,
34.458,35.674,,,
34.467,35.637,,,
34.471,35.598,,,
34.47,35.557,,,
34.464,35.515,,,
34.454,35.471,,,
34.439,35.426,,,
34.42,35.379,,,
34.397,35.33,,,
34.372,35.28,,,
34.343,35.228,,,
34.311,35.176,,,
34.277,35.122,,,
34.242,35.069,,,
34.205,35.015,,,
34.167,34.961,,,
34.128,34.907,,,
34.09,34.853,,,
34.052,34.8,,,
34.014,34.746,,,
33.976,34.694,,,
33.938,34.641,,,
33.901,34.589,,,
33.863,34.537,,,
33.825,34.486,,,
33.787,34.434,,,
33.748,34.384,,,
33.709,34.336,,,
33.669,34.289,,,
33.629,34.245,,,
33.588,34.203,,,
33.548,34.162,,,
33.506,34.123,,,
33.464,34.085,,,
33.42,34.048,,,
33.376,34.012,,,
33.33,33.977,,,
33.284,33.941,,,
33.237,33.906,,,
33.19,33.871,,,
33.144,33.837,,,
33.099,33.802,,,
33.055,33.768,,,
33.013,33.734,,,
32.972,33.699,,,
32.934,33.664,,,
32.897,33.629,,,
32.862,33.594,,,
32.828,33.559,,,
32.796,33.525,,,
32.764,33.491,,,
32.732,33.457,,,
32.701,33.424,,,
32.67,33.393,,,
32.64,33.362,,,
32.609,33.332,,,
32.579,33.304,,,
32.548,33.277,,,
32.518,33.251,,,
32.487,33.229,,,
32.457,33.209,,,
32.427,33.192,,,
32.397,33.18,,,
32.369,33.174,,,
32.341,33.176,,,
32.314,33.189,,,
32.287,33.215,,,
32.261,33.256,,,
32.235,33.316,,,
32.209,33.396,,,
32.182,33.497,,,
32.154,33.622,,,
32.127,33.77,,,
32.099,33.94,,,
32.07,34.131,,,
32.042,34.342,,,
32.015,34.569,,,
31.989,34.811,,,
31.965,35.063,,,
31.946,35.323,,,
31.934,35.587,,,
31.931,35.851,,,
31.941,36.113,,,
31.967,36.369,,,
32.011,36.616,,,
32.077,36.852,,,
32.167,37.076,,,
32.283,37.284,,,
32.426,37.475,,,
32.597,37.649,,,
32.795,37.803,,,
33.017,37.938,,,
33.262,38.054,,,
33.526,38.151,,,
